x-axis (g),y-axis (g),z-axis (g),x-axis (deg/s),y-axis (deg/s),z-axis (deg/s)
0.7003386455426919,0.6350574450300218,0.6400060601510545,0.721938440877928,0.6262547418782592,0.8184238484488229
0.6886754100714191,0.6036300987393229,0.6304273678572675,0.7268237128587816,0.5911803369864873,0.7829943910636767
0.6770576853146965,0.5723491361417513,0.620479625454201,0.7318281025042931,0.5566392113759324,0.7473880400273187
0.6654481698780309,0.5412811703361241,0.6095857581414211,0.7369863199957063,0.5233399901519961,0.7112567516991448
0.6538189155391351,0.510506014066609,0.5972328906439854,0.7423116424103137,0.4919583662912972,0.6743183740260192
0.6421532861751524,0.4801259573418716,0.5830010236498294,0.7477813991819622,0.46311638909981256,0.6363914321757341
0.6304460135977671,0.4502722754885727,0.566584417646868,0.7533251318711879,0.43736271354882605,0.5974209935480558
0.6187015559612042,0.4211083631841287,0.547804790832225,0.7588167627080276,0.4151542634053722,0.5574938513153888
0.6069311946509348,0.392829264580401,0.5266161026711376,0.7640717133871417,0.3968399399219956,0.5168423044556821
0.5951494620194416,0.36565773013299546,0.5031013173229447,0.768849449112983,0.38264715880423494,0.4758368278132274
0.5833705553912941,0.33983723916885794,0.47746207099988874,0.7728614320523495,0.372672080586514,0.4349688173953838
0.5716053594997237,0.31562265821135516,0.45000256848579007,0.7757839997209495,0.3668743859791095,0.394825291164177
0.5598595818817431,0.29326934669176036,0.42110928692121063,0.777275277218664,0.36507732660410125,0.35605788274947187
0.5481333265790018,0.2730215740898796,0.391228165987825,0.776994917817698,0.366973557006376,0.3193486739693268
0.5364222195707267,0.2551010855204246,0.3608409234422196,0.7746252632444882,0.37213694375677636,0.2853753871489346
0.5247199845828726,0.23969656247845553,0.33044197551657944,0.7698924307428339,0.38004017987482686,0.2547782352892847
0.5130221770682105,0.2269545912119273,0.30051719272923805,0.7625858657690728,0.3900776417078634,0.2281303553229747
0.5013306379582948,0.21697259262695937,0.27152541678827546,0.752575035143798,0.40159254662392707,0.20591328103119913
0.4896581402609245,0.20979400241031676,0.24388333747248594,0.7398221571192588,0.4139071372419914,0.1884984013149236
0.4780326756604956,0.20540583237111065,0.21795401067940526,0.7243901492356677,0.4263543602867878,0.1761348446502346
0.4665008625558622,0.20373860387535536,0.1940390158913883,0.7064452972116991,0.4383093472981316,0.16894377102892505
0.455130043097165,0.20466852747304468,0.17237402174621938,0.6862544838453997,0.44921895388889277,0.16691866689441584
0.44400876230571734,0.20802171148387827,0.15312736304229987,0.6641771433951669,0.4586276789759643,0.16993094345124013
0.43324547259280505,0.2135801156328915,0.13640113450144656,0.6406524048836232,0.46619846202817095,0.17773994032105492
0.42296546670988333,0.22108892115992712,0.12223427221388675,0.6161821420658569,0.47172713391720905,0.1900063315898411
0.41330619696879245,0.2302649626249638,0.11060711362793149,0.5913108477478308,0.4751496578955674,0.20630790939470608
0.4044112758863494,0.24080585528618365,0.1014469881026678,0.5666033894703044,0.47654171870087925,0.22615676608598445
0.39642356310046234,0.25239945235176864,0.09463447726223169,0.5426217800853146,0.4761106729931021,0.24901699199842603
0.38947781813878773,0.26473327635105576,0.09001008223354538,0.519902111736632,0.47418033404854754,0.2743221340161149
0.38369343400806666,0.27750358698770633,0.08738112911871164,0.49893275933290726,0.47116949791974805,0.3014918039108756
0.3791677611958035,0.29042377353398263,0.08652882300585937,0.48013486604491085,0.4675654982942306,0.3299469710503482
0.37597048702007035,0.3032317929813125,0.08721541600246611,0.46384598646312347,0.4638943772591462,0.359123611079872
0.3741394555500893,0.3156964157907809,0.08919148145893727,0.4503075915985418,0.4606894582442421,0.38848450375166005
0.3736782052291507,0.3276220890056589,0.0922032838270733,0.4396569432173277,0.45846019133868826,0.4175290757523373
0.37455537356987184,0.3388522810611433,0.096000204140118,0.43192363257611965,0.4576631036482215,0.4458012675409332
0.3767059810035342,0.34927123261270737,0.10034213067767733,0.42703085988509676,0.4586765307206012,0.47289546830221707
0.38003446998909385,0.35880410122168094,0.10500666117530992,0.4248013148648519,0.46178054033820415,0.49846061282780746
0.38441925151429374,0.36741555233898776,0.10979589673113112,0.4249673141555821,0.4671431061209466,0.5222025715697649
0.38971840882332703,0.3751069118729765,0.1145425487924249,0.42718466595664484,0.47481317086866653,0.5438849931246871
0.3957761354264371,0.381912053702858,0.11911503940048938,0.4310495731234654,0.48472078835201104,0.5633287791194649
0.4024294465395891,0.38789224587572046,0.12342126005174994,0.4361177589984436,0.49668407937616904,0.5804103860163885
0.40951470248479854,0.39313021929994957,0.12741067266987077,0.44192491029619374,0.5104223149908089,0.5950591568786877
0.41687351855530114,0.39772375045547664,0.1310744907828848,0.4480074818844035,0.5255740754301089,0.607253888004668
0.4243577046950029,0.40177906360678056,0.1344437698867805,0.4539229013578116,0.5417191514855332,0.6170188295197983
0.43183297367464446,0.40540435763042226,0.13758535897403446,0.4592682474296331,0.5584026726750229,0.6244193045609453
0.43918126979633837,0.40870374805075216,0.14059581216747608,0.4636965542970639,0.5751598732444715,0.6295571082120262
0.44630169170244255,0.41177188715505425,0.14359351865982253,0.46693001155591324,0.5915399440908427,0.6325658154558139
0.45311010226416815,0.4146894857150777,0.14670946638425036,0.46876948154935233,0.6071275595735037,0.6336060889463061
0.45953762577435836,0.4175199109641189,0.15007719425745647,0.46909993719264464,0.6215608991181389,0.6328610355546432
0.4655283189064983,0.42030697951066814,0.1538225937329426,0.4678916257135657,0.6345452847394466,0.6305316197282372
0.471036360121714,0.4230740034605945,0.15805427878238995,0.4651969783901377,0.645861902890585,0.6268321068115447
0.47602312781818457,0.4258240858950529,0.16285524364261084,0.46114350313418556,0.6553714455510005,0.6219854858462232
0.48045452872940986,0.428541600706565,0.16827646388181158,0.4559231047966715,0.6630128637274318,0.6162188136533162
0.4842988960548152,0.4311947342196859,0.1743329686032838,0.44977846623421575,0.6687977505039105,0.6097584334856296
0.4875257056018815,0.43373891444181883,0.18100272645364981,0.44298728067084064,0.6728011377064027,0.6028250534086534
0.49010526445930835,0.43612091042814144,0.18822845853960973,0.4358452428763185,0.6751496824505683,0.5956287203419377
0.49200941905181694,0.438283351088575,0.1959222361693176,0.4286487749621152,0.6760083259847093,0.5883637909279432
0.49321321775809196,0.4401693915233637,0.20397246375179828,0.4216784762498262,0.6755665231868594,0.5812040727470766
0.4936973578719659,0.4417272470280794,0.21225261294705866,0.415184242620619,0.674025070114906,0.5742983790780493
0.49345115721527977,0.4429143212444811,0.22063088910420664,0.4093728991998262,0.6715844094426929,0.5677667960528597
0.4924757253049037,0.4437006760562756,0.22897989842095015,0.4043990348703845,0.668435085707756,0.5616979909881993
0.4907869734820973,0.4440716266624934,0.23718536205185295,0.40035952518826123,0.6647507746887995,0.5561478843964004
0.48841810087686954,0.44402929503509075,0.24515300166854134,0.39729199240032587,0.6606840469797499,0.5511399580513008
0.48542122356537004,0.44359301709987864,0.2528128998808584,0.39517719102146626,0.6563647682878322,0.5466673743453067
0.4818678750183262,0.442798570973796,0.2601209073431585,0.3939450407950418,0.6519008097815349,0.5426969407051626
0.47784819180288934,0.4416962719607998,0.2670570035611238,0.3934837734933825,0.6473805591330758,0.5391747764545187
0.47346870267877683,0.44034806026179485,0.2736208868900954,0.39365143437862526,0.6428766002504755,0.536033344578999
0.46884875400534515,0.4388237840664926,0.2798254289307476,0.39428880152893964,0.638449875253969,0.5331993199761441
0.46411572183505795,0.4371969477055358,0.285688932512915,0.39523267362869297,0.6341536587263529,0.5306016061050235
0.4593992735929395,0.4355402453098125,0.2912273338601788,0.3963284435986949,0.6300367591145745,0.5281787123225116
