x-axis (g),y-axis (g),z-axis (g),x-axis (deg/s),y-axis (deg/s),z-axis (deg/s)
0.7011571192030075,0.24188334853322574,0.257717976233657,0.5444889190103251,0.2784685962694265,0.3132474579019006
0.6718992970122575,0.22213419331507034,0.25691867959786313,0.5270394751893316,0.2678004664453668,0.29398781431186566
0.6430707287669253,0.20291892804400963,0.2559184081512251,0.5098294609195031,0.25727674559250335,0.2755412351869972
0.615045613799021,0.184854818399359,0.2544385704880595,0.4930415775251896,0.24719037900603663,0.2587659575295677
0.5881654213635155,0.16850187213588338,0.2522280594620731,0.47683997364880476,0.2378188744217194,0.2444241862357756
0.5627253438913615,0.15433811332479994,0.24907768475612396,0.4613634364901269,0.22942127872105544,0.23313934214972093
0.5389636277206893,0.14274051584280834,0.24483198314028323,0.44672044857704907,0.2222369630989497,0.22536326359392178
0.5170544289381737,0.1339724340846243,0.2393978042947832,0.4329864772540594,0.21648559736679698,0.22135534758720232
0.497104535254746,0.128177851762954,0.2327492686072152,0.42020362677522355,0.2123675494081089,0.2211746417399654
0.4791539758197258,0.1253822735520375,0.22492891018200095,0.40838254669410234,0.21006391346862657,0.2246849021554322
0.4631802428847356,0.12549965129840276,0.216045041817826,0.3975062834805957,0.2097354581200843,0.231571702959134
0.4491055996301249,0.12834439668944297,0.20626559593249882,0.3875356060563266,0.2115199810942057,0.2413698885976511
0.43680676627124776,0.13364730261398466,0.19580889294658843,0.37841524248326236,0.21552783808057965,0.2534990493766047
0.42612617140717235,0.14107408031862767,0.18493195386084743,0.37008043760238707,0.22183573914799345,0.26730430115276055
0.4168839279486079,0.1502452122988216,0.17391709606543132,0.3624632751529782,0.23047923693534214,0.28209946922573453
0.4088897354345339,0.16075590663843972,0.16305762326061088,0.35549829160664664,0.24144462222184152,0.2972098050356367
0.4019540097113981,0.172195096505133,0.1526434380529199,0.34912702726622336,0.25466115710607906,0.312011579790812
0.39589767975090795,0.18416263508207284,0.14294736985002746,0.3433012959507496,0.26999468548792577,0.32596626971095755
0.3905602515160189,0.19628406735811962,0.13421292582614755,0.3379850910968349,0.2872436491104153,0.3386475353933189
0.38580590286583544,0.20822259367431933,0.12664404739383592,0.33315516897286995,0.30613840340050624,0.34975976238482787
0.38152752679050356,0.21968805693733326,0.1203973001014634,0.3288004482723831,0.3263444830257544,0.3591475307503002
0.37764877186466556,0.23044297171830222,0.11557675425574165,0.3249204334852265,0.3474701370767627,0.3667959796214628
0.37412423210257967,0.24030575995153255,0.11223164044513836,0.3215229056652217,0.36907807216412936,0.37282259334830253
0.37093801102586327,0.24915146072602787,0.11035670137278593,0.3186211312723286,0.39070094819104,0.3774614287533751
0.36810092800531224,0.2569102416347783,0.10989501997554203,0.3162308237154805,0.4118598071437182,0.38104120370884964
0.3656466528257567,0.2635640612772204,0.11074299190311204,0.31436706113501955,0.4320843178655412,0.383958957922942
0.36362705259079825,0.2691418247801526,0.11275703288678875,0.31304132651588434,0.4509335202995654,0.38665116654879766
0.3621070197145789,0.27371334639816386,0.11576156960146694,0.312258800295598,0.46801567166451485,0.3895642323896424
0.3611590266254863,0.2773823957032866,0.11955785418805165,0.3120160071399787,0.483005842663452,0.3931262066903025
0.3608576266448432,0.2802790662353614,0.12393316266959081,0.31229890065145366,0.4956600791767794,0.39772140230365277
0.36127409458179066,0.2825516757084028,0.1286699790316639,0.3130814624966228,0.5058252165543781,0.40366928313065115
0.3624713767004672,0.2843583903970821,0.1335548216607068,0.3143248929109645,0.5134437817148915,0.41120866201304035
0.36449949839097734,0.2858587656164082,0.13838642905593754,0.3159774725975843,0.5185538075576097,0.4204878412820572
0.36739155874259133,0.2872054085874269,0.14298308014748673,0.31797517525985003,0.5212837760378254,0.43156091354153575
0.3711604234569665,0.2885359958675937,0.14718887584828547,0.32024309895038355,0.5218432628246624,0.44439003279371675
0.3757962102801894,0.28996590893981555,0.15087884964011605,0.32269775789625493,0.5205101448744571,0.45885309384982376
0.38126464372426583,0.2915817809086945,0.15396280556016387,0.32525023167220785,0.5176154280742721,0.4747559438790979
0.3875063379595268,0.2934362662932898,0.15638780379471276,0.32781010592217624,0.5135268417851491,0.49184801189100136
0.3944370483043878,0.295544346745157,0.15813923097875382,0.33029006217580476,0.5086323290874656,0.5098400919826106
0.40194891268195165,0.29788146163963247,0.15924040919301632,0.3326108909016828,0.5033244459027499,0.528422959897019
0.4099126845209979,0.30038369961787614,0.15975071977992936,0.33470662162633363,0.4979864889684853,0.5472855388092251
0.418180937220422,0.3029502039497323,0.1597622500638586,0.336529398021353,0.4929809289685239,0.566131452023186
0.42659219636903695,0.3054478330163071,0.15939501596081726,0.3380536855942792,0.48864046151708745,0.5846929947019163
0.43497592795766865,0.3077179826538539,0.15879087223393828,0.339279394676345,0.485261735283836,0.6027418067776406
0.4431582773346892,0.30958532809449363,0.15810629315693384,0.34023353833617664,0.4831015994058166,0.6200958146949532
0.45096841357010453,0.3108680909237652,0.15750428529929605,0.34097012589432096,0.4823755505494958,0.6366223089587569
0.45824528713243096,0.31138929375912877,0.15714577436372335,0.341568115025462,0.4832579637730597,0.652237315844522
0.46484455679989056,0.3109883458701039,0.15718088100404673,0.3421274009169831,0.48588366136424943,0.6669016846766496
0.4706453878834586,0.3095322198812539,0.15774055690375494,0.342762996704319,0.490350401818228,0.6806145290110522
0.47555677351524805,0.30692544449641684,0.1589290827837741,0.34359773877723265,0.4967219415889963,0.6934048168030076
0.4795229911183222,0.3031181594322263,0.1608179263666776,0.34475401472374834,0.5050314151070224,0.7053219916971806
0.48252778555957737,0.29811156106581826,0.16344141494951925,0.3463451415975566,0.515284872237051,0.7164265205825455
0.4845968774317882,0.29196021050178406,0.16679459175517475,0.34846710070669273,0.5274648870599361,0.7267812025731486
0.4857984369134533,0.28477087433942555,0.1708334993074968,0.3511913490673535,0.5415341925621571,0.7364439480535463
0.4862412458160076,0.276697811404273,0.17547797277123234,0.35455936972420554,0.5574392945719527,0.7454625548274987
0.486070394140662,0.267934689973344,0.18061684191261768,0.3585794931972659,0.5751139756898539,0.7538717875027784
0.48546051936182133,0.25870359907518786,0.1861152462889081,0.3632263282074786,0.5944825254661633,0.761692825091306
0.484606787984318,0.24924188067808442,0.19182358152638843,0.3684428972801785,0.6154624440725739,0.7689349014300125
0.48371402555282733,0.2397877319911977,0.1975874336081519,0.37414530452723455,0.6379662864768612,0.7755987448849635
0.48298460439440566,0.2305656843856903,0.20325774119766188,0.3802294967652765,0.6619022687211641,0.7816812480664439
0.482605875854651,0.22177313633328521,0.20870036918739057,0.38657944567196284,0.6871732723052891,0.7871806821172236
0.48273806239556954,0.21356908649832004,0.21380429170129533,0.3930759078775044,0.7136739765043272,0.7921017260254836
0.48350358290368517,0.20606607180712647,0.2184876754887614,0.39960483753230147,0.7412860317179409,0.7964596157270808
0.48497875460627254,0.19932606594206254,0.22270132333763337,0.4060645499504498,0.7698714563700192,0.8002828296733988
0.48718868722280173,0.19336074956482247,0.22642917176128438,0.412370872192091,0.7992647762600475,0.8036139084489542
0.49010595952329167,0.18813614983198337,0.2296858192797185,0.4184597599377474,0.8292647925448324,0.806508239582096
0.49365335734443067,0.1835811998911062,0.23251136498086805,0.4242871876151548,0.8596272109273777,0.8090309015560864
0.4977105799323197,0.17959933487967242,0.23496412976023437,0.42982649353627567,0.8900596263869038,0.8112519243601892
0.50212442458212,0.17608187126353125,0.2371120797381745,0.43506373445509144,0.9202204656992881,0.8132405557025055
0.5067215832820403,0.17292166378524176,0.23902393861242796,0.4399919175692204,0.9497233789077193,0.815059290133399
