x-axis (g),y-axis (g),z-axis (g),x-axis (deg/s),y-axis (deg/s),z-axis (deg/s),energy,movement
0.7556867976540858,0.23234834157373654,0.817008439868769,0.528724859417976,0.416817203724154,0.5004239542357277,0.468432305951777,0
0.7481648458086355,0.23287870393620183,0.8143466550599003,0.5286569635405309,0.4194241585110872,0.5031901669784238,0.46542364962973354,0
0.7389331420941705,0.23341189973808724,0.8104418187584044,0.5281100658026978,0.4242624928766731,0.5077274904360246,0.4621824842300277,0
0.7278680401386239,0.23387555571211302,0.8050975806533197,0.5269435833222982,0.4316867740647445,0.5142565974323544,0.45876318495931373,0
0.7148671979416865,0.23417961748614746,0.798118216366379,0.5250100751455201,0.4420019225708806,0.5229479359490778,0.45522111731168474,0
0.6998522967129464,0.23421801834062592,0.7893102078947714,0.522159897266339,0.45544200961223097,0.5339074661335127,0.45160693452525824,1
0.682771633228819,0.23387190779775077,0.7784834222224064,0.5182464615745506,0.4721503295601946,0.5471646615532197,0.4479604516143495,1
0.6636028457222569,0.2330146030485205,0.76545260786671,0.5131318715746566,0.4921620042475637,0.5626638342319252,0.44430456111142114,1
0.6423560181167178,0.23151829840208485,0.7500401226168244,0.5066926594053143,0.5153902933793124,0.5802596754297427,0.4406397018307704,1
0.6190773545644279,0.22926237368523456,0.732080746840583,0.4988253219071633,0.5416176214921454,0.599717626018132,0.436939400524633,1
0.5938535406260063,0.22614290562155728,0.7114291309104029,0.48945135385576727,0.5704921112375336,0.620719329821355,0.4331473753212654,1
0.5668168092089262,0.22208274953370574,0.6879699628518474,0.47852150450213465,0.6015301630261346,0.6428730251179287,0.42917661922799905,1
0.5381505900303254,0.21704136705124394,0.6616304514995109,0.46601903560887653,0.6341253621196333,0.6657283443855397,0.42491077395961574,1
0.5080954365687925,0.21102346371064482,0.6323943029993483,0.45196182927631867,0.6675637345138743,0.6887946663727659,0.4202079637290404,1
0.4769547196775905,0.20408549342869392,0.6003160607889877,0.4364032753939824,0.7010451126786607,0.7115619287322094,0.41490709293369044,1
0.44509936986602894,0.19633920630273513,0.5655344685065279,0.41943195325964083,0.7337101034622793,0.733522672502111,0.4088364309531265,1
0.4129707243521414,0.18795167290738654,0.5282833902762089,0.4011701974137777,0.7646718561773586,0.7541940404839043,0.40182412371441445,1
0.38108029298234836,0.1791415867710712,0.48889880621290593,0.3817716895927595,0.7930514914026618,0.7731384718869214,0.3937100988465082,1
0.3500050938770481,0.1701720527724563,0.447820542430035,0.36141823804489764,0.818015669699842,0.7899819134320498,0.38435868314488747,1
0.320377292853933,0.16134042017535427,0.40558774416529825,0.3403158955675576,0.8388143871055511,0.8044285002713798,0.37367114104441457,1
0.29286733957633815,0.15296595416298914,0.3628276738982423,0.31869054351285847,0.8548167520752138,0.8162708535824663,0.3615972823380955,1
0.26816061566200294,0.14537625221025732,0.32023815040354675,0.2967830499516904,0.8655423211976441,0.8253954036368264,0.34814528496560676,1
0.24692861826637733,0.1388933320940352,0.27856467589116746,0.2748441093238218,0.8706856341926611,0.831782481402617,0.3333889388199367,1
0.22979663252554294,0.13382028446274258,0.23857382398842775,0.2531288880315125,0.8701319357555877,0.8355013136970767,0.3174716389673875,1
0.21731049074028835,0.13042931324706433,0.2010246577840517,0.2318916230561158,0.8639626882421625,0.8367004615767977,0.3006066361756127,1
0.2099053124630259,0.1289518684625776,0.16663983524684428,0.21138033276620158,0.8524502990916899,0.8355945933650432,0.2830732789644598,1
0.2078790904517392,0.12957137734821925,0.1360777659457306,0.19183179096045472,0.8360424092930467,0.8324487263776995,0.26520923989882705,1
0.2113736325116453,0.132418795456155,0.10990685739311522,0.17346688721917156,0.8153369934038728,0.8275611811251891,0.24739899149264344,1
0.2203646614712731,0.13757088260309722,0.08858264438225968,0.15648645614289752,0.7910502831396129,0.8212464733691719,0.23005906382067523,1
0.23466186360699504,0.14505085269979087,0.07242849130872159,0.14106761544462232,0.7639800423806588,0.8138192409616656,0.21362085626931462,1
0.25391855515662726,0.15483091916135014,0.061620601735921994,0.12736062004851711,0.7349669401416987,0.8055800890471388,0.198511970649177,1
0.27764968030586173,0.16683625816453893,0.05617819575264746,0.11548622596129134,0.7048566990376218,0.7968039741467977,0.18513716596622656,1
0.30525624897284054,0.18094999254650654,0.05595979384279196,0.10553356406930234,0.6744653863882265,0.7877314760028117,0.17386009472344002,1
0.3360540761114824,0.19701890793773702,0.060666452228261385,0.09755854016504209,0.6445497166663328,0.7785630591170973,0.1649869603643828,1
0.3693046889262102,0.21485970884405076,0.06985248824594109,0.09158279242087772,0.6157836044400398,0.7694562213331697,0.1587531350637295,1
0.4042464217064671,0.23426567560036823,0.0829437639857787,0.08759324836710453,0.5887415203086285,0.7605252716306126,0.15531360230880065,1
0.4401239641041237,0.2550135850857837,0.09926305047972372,0.08554233401126657,0.5638885480090847,0.7518433761087955,0.1547378510594242,1
0.4762149333305319,0.27687072834975507,0.11806145433196646,0.08534890064178255,0.5415765009032868,0.7434464567962586,0.1570095639569194,1
0.5118523788163275,0.29960182723062767,0.13855441210556854,0.08689994745011828,0.522045084037499,0.735338510702016,0.16203113082786333,1
0.5464425009232413,0.32297563755663317,0.15996038251650568,0.09005322517540927,0.5054269055002706,0.7274979200900187,0.16963270233938685,1
0.5794772910676906,0.346771029346149,0.18154010828924824,0.09464080330850566,0.49175514276650495,0.7198843371522654,0.1795851991976356,1
0.6105422514783511,0.37078235031790063,0.2026341842596388,0.10047366725504113,0.4809728262305838,0.7124457427963552,0.1916164305256748,1
0.6393197288239792,0.39482390642118653,0.22269668373550894,0.10734737755090432,0.4729429621770222,0.7051253002388319,0.20542926899076785,1
0.6655886001303266,0.4187334301280476,0.2413228086091452,0.11504876737346326,0.46745902201499656,0.6978676499829826,0.2207206937980122,1
0.6892210782222615,0.44237444872241216,0.25826895013685275,0.12336357867860256,0.46425562039660057,0.6906243231072219,0.2372004547981809,1
0.7101773343290381,0.4656375051440809,0.27346410486929684,0.1320848477096788,0.4630194448688082,0.683357985085388,0.2546081351955499,1
0.7284985332363477,0.4884402259045525,0.2870121450319943,0.1410217552130524,0.4634006369428351,0.6760452698147082,0.27272749469171725,1
0.7442987382291223,0.5107262891124206,0.29918485217787305,0.15000856129830684,0.4650248190160637,0.6686780391983241,0.29139715217687906,1
0.7577559349001611,0.5324634261333517,0.310405838274086,0.15891315453142474,0.46750580888035687,0.6612630213621609,0.31051690556160155,1
0.7691021768160441,0.553640660095376,0.32122560746888984,0.16764467026399374,0.4704588193604121,0.6538199347072277,0.33004927068496726,1
0.7786127045234122,0.5742649906377875,0.33228825185965977,0.1761595943152778,0.4735137068089256,0.646378365084617,0.3500161335219553,1
0.7865939543297679,0.5943576670272842,0.3442907453188044,0.1844657861903964,0.4763277011681569,0.6389737892726027,0.3704907307608672,1
0.7933706198592658,0.6139501114383745,0.35793643258051977,0.19262393910787176,0.47859705145620784,0.6316432033643656,0.3915854834656343,1
0.7992721748849967,0.6330795384745951,0.37388491519106315,0.20074613062350774,0.48006711214419817,0.6244208173024406,0.41343648784659875,1
0.8046193541243849,0.651784383581632,0.39270099524178187,0.20899128614782522,0.48054050647374136,0.6173342272452146,0.4361856985687183,1
0.8097110405804084,0.6700997455140605,0.41480571655844123,0.21755756417900968,0.47988308608401276,0.6104013868313654,0.4599620083754935,1
0.8148119770211008,0.6880530992765687,0.4404329310596652,0.22667187471057196,0.4780274633079246,0.6036285811680006,0.4848625211588131,1
0.8201417972990247,0.7056605337393342,0.46959510093802304,0.23657695679778556,0.4749739458543803,0.5970094869164557,0.5109353259845024,1
0.8258659908868669,0.722923747558717,0.5020619367838887,0.247516648276316,0.47078876282094007,0.5905253018685217,0.5381650036894062,1
0.8320894517711576,0.739828020833205,0.5373547734180298,0.2597201538548485,0.4655995304531514,0.5841458574289968,0.5664619374826416,1
0.8388531817757622,0.7563413530571113,0.5747583651660458,0.273386241488118,0.45958796784576134,0.5778315807628286,0.5956562622059177,1
0.8461345322947137,0.772414899570749,0.6133502730334848,0.28866836745445057,0.4529799560040086,0.5715361377664515,0.6254969870512069,1
0.8538510802180883,0.7879847487777071,0.6520464442614642,0.3056617434092208,0.4460331613496793,0.5652095562408697,0.6556564825929551,1
0.8618678788364852,0.8029749677021044,0.6896601167945098,0.324393302771894,0.43902262970549777,0.5588016015360151,0.685740158530834,1
0.8700075113276611,0.817301704594189,0.7249699554168286,0.34481538995554545,0.4322249956757717,0.5522651604463003,0.7153008001684612,1
0.8780622009666276,0.830877988384062,0.7567924568076373,0.36680378503538275,0.425902216821789,0.5455593892634629,0.74385670694169,1
0.8858071865338639,0.8436187503537609,0.7840532203613756,0.3901603981450098,0.4202859704900008,0.5386524011537871,0.7709125112931543,1
0.8930145672054526,0.855445564188521,0.8058517110019752,0.41462063744863525,0.4155639613488429,0.531523304886218,0.7959813727526881,1
0.8994668072098316,0.8662906721428949,0.8215146553601975,0.43986509444884714,0.4118693123983062,0.5241634574280392,0.8186071555535334,1
0.9049690810815373,0.8761000055305616,0.830634180573785,0.46553483336501555,0.4092739328976626,0.5165768534359041,0.838385215425878,1
0.9093596648538745,0.8848350606492467,0.8330881278215413,0.49124925923843427,0.40778631530033826,0.5087796439429448,0.8549805399428628,1
0.9125176543289306,0.8924736089009508,0.8290415007834558,0.5166253154682062,0.40735370246434,0.5007988533413917,0.868142195284097,1
0.9143674399845702,0.8990092891785783,0.8189295562606982,0.5412966563490748,0.40786810132015033,0.49267044006729416,0.8777133108226598,1
0.9148796168394666,0.9044501762270247,0.8034244264496689,0.5649314618127502,0.40917529670680663,0.48443690427405817,0.883636155955479,1
0.9140683657556177,0.9088164729898758,0.783388276300252,0.5872476984982261,0.4110858822649093,0.4761446669286508,0.8859522024681641,1
0.9119857741267494,0.9121375427476677,0.7598168456570246,0.6080248641037678,0.4133873535931118,0.4678414261890557,0.8847973919111817,1
0.9087139731417366,0.9144485580073293,0.7337778263515432,0.6271115591217014,0.41585643605127987,0.4595736539161526,0.8803931154550297,1
0.9043562228628909,0.9157870799380563,0.7063488402502976,0.6444285854411195,0.4182709672189708,0.4513843474804534,0.8730336434348182,1
0.8990280823830279,0.9161898859705567,0.6785597183295189,0.6599676423640322,0.4204207687128849,0.44331111073412166,0.8630709002972122,1
0.8928495800299396,0.9156903246602298,0.6513432230512202,0.6737860404209964,0.4221170189673854,0.4353846053485982,0.850897562637036,1
0.8859389673829683,0.9143163949209308,0.6254972641497333,0.6859981446092851,0.4231997153017114,0.4276273883229073,0.8369294655677304,1
0.8784083427385574,0.9120896401990406,0.6016601678303565,0.6967644596993401,0.42354293973380297,0.4200531307625078,0.8215882442123886,1
0.8703612507642845,0.9090248388851978,0.5802989892868903,0.7062793644865258,0.4230578454857384,0.41266619528063336,0.8052850256614924,1
0.8618922814875273,0.9051303669136579,0.561709531328133,0.7147584919700162,0.421693540381417,0.4054615372870286,0.788405838044043,1
0.8530885824353295,0.9004090160102732,0.546025805449007,0.7224266532236288,0.41943629088560125,0.39842489541756615,0.7712992338900303,1
0.8440329534662692,0.8948590021465062,0.5332361532414738,0.7295070311164148,0.4163076165922498,0.39153325169796865,0.7542664502860679,1
0.8348078338225544,0.8884749245537444,0.5232031237420014,0.7362121437687069,0.4123618258490232,0.3847555663417105,0.7375542617731939,1
0.8254991662748841,0.8812485288725778,0.5156845157226418,0.7427368214838115,0.4076833577733254,0.37805380982740855,0.7213505337650251,1
0.8161990077189033,0.8731692380253777,0.5103537641763379,0.7492531904898244,0.4023840064501292,0.371384310337004,0.7057823612874425,1
0.8070059265285675,0.8642244859852476,0.5068189385874474,0.7559074526315634,0.3965998039697768,0.3646994032844881,0.6909165834617789,1
0.7980226261837294,0.8543999064488108,0.5046406746386174,0.7628181237649917,0.3904871189184078,0.35794932272038316,0.6767623987339417,1
0.7893507249683277,0.8436794191568412,0.5033499499451024,0.770075355186529,0.3842174475916592,0.35108423173309283,0.6632757672999247,1
0.7810830838117765,0.8320452629163213,0.5024664876299614,0.7777409976991215,0.3779704671506354,0.34405626539545653,0.6503652716516822,1
0.7732944652634166,0.8194780628274536,0.5015178467242575,0.7858491470035017,0.371925183995234,0.3368214552288112,0.6378991087992918,1
0.7660316296564991,0.805957065791747,0.5000583613913676,0.7944070016072545,0.36624941403998534,0.32934140728027134,0.6257129032925239,1
0.7593041981749037,0.7914606878970514,0.49768647520871023,0.8033959499178857,0.36108829938885556,0.32158460848867393,0.6136180536498953,1
0.7530776379273095,0.7759674641467654,0.49405890647289114,0.8127728714880226,0.35655298165753097,0.3135272433527313,0.6014103518202164,1
0.7472694599516574,0.7594573943742744,0.4889004275616724,0.8224716838604642,0.3527107859441038,0.3051534320551569,0.5888786423813799,1
0.7417491882813129,0.7419135904595274,0.48200865375008556,0.832405188370846,0.34957822968879715,0.29645486838380175,0.5758133129225086,1
0.7363420134390191,0.7233240957786032,0.47325393612556993,0.8424672644742599,0.3471178502248564,0.2874299395330021,0.5620144281619256,1
0.7308355092061398,0.7036837771486938,0.46257513999088173,0.8525354361655243,0.34523933048154554,0.27808252376077935,0.5472993375729371,1
0.7249885462655203,0.6829962505659509,0.4499726822218629,0.8624737963348627,0.3438048385801843,0.26842074821251827,0.5315096002785594,1
0.7185416243781565,0.6612758520805714,0.4355005693238289,0.8721362392386032,0.3426380208175061,0.25845602107607885,0.5145170831001034,1
0.7112281542743517,0.6385496832507341,0.4192592077248786,0.8813699280649065,0.3415357713613475,0.2482026229683108,0.49622909972632323,1
0.7027865462079241,0.6148597525249176,0.40139044093709547,0.890018917854412,0.34028174160448577,0.23767806187473214,0.4765924730034584,1
0.6929731050053074,0.5902652138354411,0.3820756818846448,0.8979278613401804,0.3386604994501682,0.22690428385704162,0.45559642018812985,1
0.6815755976995502,0.564844675014252,0.3615372547503278,0.9049457382416058,0.33647126044488046,0.215909709305382,0.4332741840716969,1
0.6684270235164285,0.5386984981532394,0.3400422723834992,0.9109295579441429,0.3335401802382969,0.2047319447065242,0.40970336189340234,1
0.6534187665210023,0.5119509262807845,0.3179077111705634,0.9157479883483072,0.3297303445479533,0.19342090837686135,0.38500491874765636,1
0.6365121006470349,0.48475175344770316,0.29550490787461836,0.9192848619341928,0.32494884228909365,0.18204201465486242,0.3593409116527566,1
0.617746972996986,0.45727714595387675,0.2732615054485423,0.9214425026577808,0.3191506484627475,0.17067899950399737,0.3329109926142622,1
0.5972470781832729,0.42972916412797746,0.2516589265742823,0.9221448000480198,0.31233941697553474,0.15943595050036916,0.3059478012715455,1
0.5752204411156745,0.4023335551244676,0.23122383865836316,0.9213399319709944,0.304565603084085,0.1484381239855518,0.27871139713713516,1
0.5519550658320593,0.3753355098184007,0.21251289236346446,0.9190026167672734,0.29592252375167205,0.13783118905294453,0.2514829151916637,1
0.527809680439198,0.348993322835947,0.1960912125400541,0.915135770482891,0.28654099088523755,0.12777864037719655,0.22455765433094635,1
0.5032001315793485,0.32357025035305637,0.18250636629015066,0.9097714546510167,0.2765830487991337,0.1184572856058587,0.19823782431824208,1
0.4785824046232028,0.2993252296919975,0.17226035227195868,0.9029710112482773,0.26623519048508015,0.11005093851170612,0.17282518288105322,1
0.45443346053461287,0.276503348422978,0.16578226406949031,0.8948242849585382,0.25570129655714724,0.10274269997857435,0.14861379077709705,1
0.4312311318121199,0.2553269136855994,0.16340379300595048,0.8854478373576696,0.24519548163854357,0.09670642256409974,0.12588310019926707,1
0.40943434888595126,0.2359877089340121,0.1653390340973618,0.8749820813026279,0.23493505007015633,0.09209807873320917,0.10489157245163465,1
0.3894650322044153,0.21864069643631284,0.17166951334028346,0.8635873170257974,0.22513382612573393,0.08904777123357717,0.08587099621178497,1
0.37169296578406746,0.2033991894622507,0.18233514421472655,0.8514387329325703,0.21599617725845321,0.0876530510614238,0.06902164952850681,1
0.3564246822182835,0.19033144769845978,0.19713189037943812,0.8387205359117001,0.20771203264346996,0.08797407091212041,0.05450841822243583,1
0.34389679136343343,0.17945872880919786,0.2157170268391484,0.8256194831712147,0.20045308601242362,0.09003092391556462,0.04245795132598023,1
0.3342734513375799,0.17075498529605238,0.23762276817269884,0.8123181795327001,0.19437018603258432,0.09380331724457733,0.03295690099477601,1
0.3276470947009439,0.16414851006355702,0.2622784701430771,0.7989885617721822,0.18959172127331733,0.09923252539393565,0.026051260140178088,1
0.3240412831889104,0.15952579036873563,0.289040607375594,0.7857860021479599,0.18622266767666673,0.10622537601036323,0.021746776150007883,1
0.3234146879611462,0.15673758891898085,0.3172285188243806,0.7728444220585587,0.18434393240725988,0.11465985747231118,0.020010384099633245,1
0.3256655595529669,0.15560690027233878,0.34616287016041075,0.7602727219333093,0.1840117133330866,0.12439181645074893,0.02077256892407995,1
0.3306365023607664,0.15593806746372918,0.37520323112278625,0.748152724015441,0.1852567718099782,0.1352621489236457,0.023930534760323485,1
0.33811975654271953,0.15752612143670727,0.4037812338822924,0.7365387093453513,0.1880837259835085,0.14710388767154678,0.029352033092430823,1
0.34786340068533517,0.160165392214844,0.43142639428357266,0.7254585199675364,0.19247063654168425,0.15974865354664036,0.03687968155893689,1
0.3595788641545072,0.1636566253166274,0.45778265372657406,0.7149160973976768,0.19836921606659558,0.17303206059040624,0.046335594178355956,1
0.3729499127901995,0.16781215928747867,0.48261481661791034,0.7048952410342372,0.2057059233204326,0.18679783193914676,0.057526142574913064,1
0.387642956063144,0.17245909726703562,0.50580512804934,0.6953642953155393,0.21438402454212926,0.2009005684804231,0.07024667691680113,1
0.40331823388702565,0.177440745887562,0.5273411365818387,0.6862814112892336,0.2242864718364415,0.21520728224506686,0.08428605405914973,1
0.4196412482273082,0.18261681929992396,0.5472966684174443,0.6775999800603906,0.2352792457710929,0.2295979330566608,0.09943084715141172,1
0.4362937453728793,0.18786297378718503,0.5658081991616837,0.669273812582199,0.24721471854866844,0.24396527456986947,0.11546914323456463,1
0.4529836361356197,0.19307015953479456,0.5830491511369421,0.6612616569039351,0.2599346633685336,0.25821432223194574,0.13219387010479827,1
0.4694534074848612,0.19814410324218606,0.599204654181255,0.653530709425647,0.27327274788186656,0.2722617100854546,0.14940562779538855,1
0.48548672282584926,0.20300503734914874,0.6144490712841166,0.6460588862794339,0.2870566246780954,0.2860351239233277,0.16691503049783601,1
0.5009129589016548,0.20758762504309733,0.6289281293799656,0.6388357574177179,0.30110995670363144,0.29947290437220453,0.1845445892425286,1
0.5156094131579942,0.21184092456028966,0.6427468841748922,0.6318621879769446,0.31525478966153253,0.3125238179493592,0.2021301826282115,1
0.529500922587702,0.21572820039255255,0.655964081294015,0.6251488597257557,0.32931456479394405,0.32514690822349884,0.2195221716952941,1
0.5425567418661891,0.21922641955389818,0.6685928262142177,0.6187139442700833,0.34311779966488803,0.33731128093274254,0.23658621597379054,1
