x-axis (g),y-axis (g),z-axis (g),x-axis (deg/s),y-axis (deg/s),z-axis (deg/s)
0.09971088086199252,0.00864110286889678,0.18779036053340348,0.05617269865625459,0.6122510465543499,0.8664142009388077
0.13825072884878037,0.03215352181905365,0.18796091313483093,0.050693595929736726,0.5800872500312678,0.8491315871675582
0.17674657904025773,0.056162663188028976,0.1884786784955593,0.045777053602856665,0.5486366292690288,0.8321556774641743
0.21526213409399014,0.0813020740532292,0.18969069333565858,0.0420253452566981,0.5186183039748372,0.815716075213825
0.25382031258191434,0.1081008755446546,0.19188731744419996,0.03995978218992509,0.49068145260350426,0.8000167805969223
0.2923853926905792,0.13694246888245526,0.1952832915426999,0.039989463530189014,0.4653748021195878,0.785224398986437
0.33085202212379927,0.16803684298911686,0.20000611870493146,0.04238969793118887,0.44312284563379917,0.7714586426543772
0.36904197177125025,0.20140821850199078,0.2060925406710958,0.04729140712722867,0.4242101230024231,0.758785915286733
0.40670863501793125,0.23689825344292942,0.21349303656682378,0.05468176699106698,0.40877424102803084,0.7472165115498743
0.44354846824633076,0.27418360600973213,0.22208347964472464,0.06441533345967547,0.39680763376025907,0.7367056611628247
0.4792179212032562,0.31280544586024117,0.23168243346666867,0.07623404141365202,0.3881674312766248,0.7271583282040911
0.5133539763960566,0.35220763063267435,0.2420721131341896,0.08979382806510335,0.382592268901014,0.7184373717243467
0.5455962279919844,0.39177977481559145,0.25302081168813284,0.10469525921905239,0.37972446570177715,0.7103744104290931
0.5756084745176249,0.4309013415670606,0.2643046002012717,0.12051543491210903,0.37913575288322915,0.7027825342118307
0.6030980421396906,0.468983151442761,0.27572633102817934,0.13683859989308128,0.3803546448233419,0.695469883525867
0.6278314451544164,0.5055032601321805,0.28713036640042366,0.15328324163578708,0.3828936088990305,0.6882530808381523
0.6496454674291318,0.5400349245511453,0.29841196552354027,0.16952396706780398,0.3862743838409261,0.6809695455305758
0.6684532521530772,0.5722652582994106,0.3095208331184384,0.18530704529821435,0.39005009062027945,0.6734878461346133
0.6842454626807094,0.6020040804314284,0.3204589021213624,0.20045912413308162,0.3938231404266273,0.6657154273070995
0.6970869808429371,0.6291833028925361,0.3312729403160387,0.2148892162443512,0.3972583355728941,0.6576032749181066
0.7071099111836362,0.653847915713076,0.3420429926947293,0.22858456036270997,0.40009094757794983,0.649147330263008
0.714503845411836,0.6761401694543397,0.35286796911434365,0.24160136096574858,0.40212991318355873,0.6403867127165805
0.7195044103860057,0.696278897483788,0.3638498454046135,0.254051678073637,0.40325659095883365,0.6313990396298018
0.7223810866760701,0.7145360631582289,0.3750779645919141,0.2660878721714349,0.4034197530504364,0.6222933264322689
0.7234251637307356,0.7312125736154163,0.3866148149141229,0.27788601530088874,0.40262764071388674,0.6132010963038795
0.7229385180092478,0.7466152013197057,0.3984844444238662,0.28962957500971503,0.4009379877697025,0.6042664196606004
0.721223690230083,0.7610361348559957,0.41066437674392336,0.3014944868473981,0.39844691845192237,0.595635636173074
0.7185755240606566,0.7747362844265195,0.4230815510869533,0.3136364808783343,0.39527756543551235,0.5874474878701462
0.7152744342247914,0.7879330379905681,0.4356124545004167,0.3261812464940708,0.3915691436000879,0.579824316937974
0.7115812145786012,0.8007927403652875,0.4480872755159491,0.3392177342445958,0.3874670704960297,0.5728648652619813
0.707733186970913,0.8134277828474695,0.4602976113615112,0.35279462648851145,0.38311456099666175,0.5666390660351799
0.7039414335769735,0.8258978697585245,0.4720070248334821,0.3669197784926099,0.37864595576812476,0.5611850535916347
0.7003888464741012,0.8382147864366062,0.48296358405790063,0.3815622506931802,0.37418188357914206,0.5565084489573504
0.6972287609073754,0.8503498373263031,0.49291343387570813,0.39665642792077177,0.3698262161576464,0.5525838176519766
0.6945840016431973,0.8622430515932195,0.5016144400834066,0.4121076538445506,0.36566465842784174,0.5493580537006932
0.6925462516453528,0.873813259129047,0.5088490102291175,0.42779879538207893,0.36176473071237164,0.546755328157815
0.6911757352574083,0.884968209081394,0.5144353156650796,0.4435971852858853,0.3581768442545486,0.5446831576856735
0.6905012814732361,0.8956140203921112,0.5182363045956432,0.459361461855656,0.3549361461717341,0.5430391021248988
0.6905208863968315,0.9056634024470335,0.5201660887768597,0.4749479214946693,0.3520648117153165,0.5417175900742432
0.6912029205167776,0.9150422475878408,0.5201934908253673,0.490216110903646,0.3495744861130586,0.5406163963002474
0.6924881225335546,0.9236943615348442,0.518342739134417,0.5050334997933678,0.3474686201017192,0.5396423501942995
0.6942924875684332,0.931584251093063,0.5146914793676776,0.5192791820058221,0.34574449701553195,0.5387159346676386
0.6965110975918327,0.9386980224643016,0.5093664242056033,0.5328466445449845,0.344394809630401,0.5377745328373957
0.6990228627649371,0.9450425529724173,0.5025370783771087,0.5456457140835858,0.3434087070435135,0.5367741880067965
0.7016960531933079,0.9506431819857396,0.4944080493380989,0.5576038352648169,0.34277229162420414,0.5356898530972993
0.7043944116356509,0.9555402237866617,0.48521048400213157,0.5686668532266989,0.34246860031747656,0.5345142115715884
0.706983559400735,0.9597846384521939,0.4751931606743272,0.5787994652567422,0.3424771510156197,0.5332552465300687
0.7093373494564373,0.9634332099408525,0.464613717647848,0.5879854764857348,0.3427731718259389,0.5319328127361231
0.7113437902081845,0.9665435773796169,0.4537304230054547,0.5962279470231963,0.3433266579720293,0.5305745238371417
0.7129101653323388,0.9691694495999689,0.4427947929571996,0.6035492593137117,0.34410141732643235,0.5292113014651739
0.7139670111261623,0.9713563071362966,0.43204525847418324,0.6099910720871466,0.3450542709941718,0.5278729431623749
0.7144706813128293,0.9731378620094442,0.42170197222859684,0.6156140688276689,0.34613456988745583,0.5265840525325189
0.714404325098988,0.9745335044388271,0.41196274957817297,0.6204973617608088,0.3472841718694805,0.5253606393070276
0.7137772196752512,0.9755469170196484,0.4030000569212479,0.6247373837300088,0.34843799694430627,0.5242076418863175
0.7126225233077843,0.9761659801837168,0.39495890462003513,0.6284460953769969,0.34952524053861145,0.5231175540539709
0.7109936385103655,0.9763640272090294,0.38795547373307343,0.6317483571426513,0.35047127803585004,0.5220702553645501
0.708959485139896,0.9761024324714703,0.38207630695721206,0.634778365668646,0.3512002389584579,0.5210340561014413
0.7065990701128395,0.9753344339764357,0.3773779222654407,0.6376751302491361,0.3516381690293442,0.5199678779451881
0.703995795131132,0.9740100030051442,0.373886757498578,0.6405770620625186,0.3517166362950202,0.518824405985618
0.7012319603627958,0.9720814843998071,0.3715994177219652,0.6436158590443171,0.35137657811073886,0.5175539718087824
0.6983838978029983,0.9695096469805965,0.3704832646258461,0.6469099818818117,0.35057213449504604,0.5161088662030197
0.6955181041032765,0.9662697128956168,0.37047744778674624,0.6505581192547029,0.34927417609631783,0.5144477381944628
0.6926886438239429,0.9623568864681713,0.37149452060119253,0.6546331197753096,0.3474732176932324,0.5125397185383817
0.6899359686724095,0.9577908865429707,0.3734228000783482,0.6591769112085669,0.34518141596973984,0.5103679133071568
0.687287157612083,0.952619009542321,0.3761296131857256,0.6641969235784929,0.34243338693811204,0.5079319482822466
0.6847574401119129,0.9469173190078172,0.3794655207534292,0.6696644744105001,0.3392856451720561,0.5052493071761724
0.6823527345758927,0.9407896729888456,0.3832695253952451,0.6755154594797897,0.33581456224272294,0.502355293894425
0.6800728301576916,0.9343644597865742,0.38737515976162873,0.681653525257507,0.3321128601602745,0.49930155637604895
0.6779147750632155,0.9277891059067283,0.3916172275561611,0.6879556909984019,0.3282847882614841,0.49615322988993743
0.6758760173607203,0.9212226322566337,0.3958388476086942,0.6942801571451017,0.32444026656593833,0.49298488163691734
