x-axis (g),y-axis (g),z-axis (g),x-axis (deg/s),y-axis (deg/s),z-axis (deg/s)
0.6370708996257813,0.9242419932400192,0.4354588526001939,0.891519298331422,0.5039607614218121,0.34512462799912885
0.6263275450918117,0.9180354400143763,0.42607476674302475,0.9065215284425857,0.5081752892671484,0.33735788007543704
0.6156364089360269,0.9116983637869257,0.416721811482139,0.921369576365999,0.5119121893799357,0.3296277404642463
0.6048829453269534,0.9049873895537327,0.4072756168801095,0.9357635357212039,0.5145463856529082,0.32192189143016126
0.5939542597695605,0.8976849605932589,0.39761264931193835,0.94941165673632,0.5155169892541637,0.3142293521293691
0.5827417864860635,0.8896086761389442,0.3876169762771659,0.9620294026082078,0.5143572757775859,0.3065421541602295
0.5711439823564318,0.8806176001530396,0.37718752762941976,0.9733382366325704,0.5107179921385439,0.298856874734282
0.5590693124439063,0.8706154681903647,0.3662457227527228,0.9830650358948361,0.5043828732556443,0.29117600085425954
0.5464396794012516,0.8595509584878178,0.35474317311182,0.9909429080905997,0.4952758477476994,0.2835090734625383
0.5331942946289813,0.8474153889918146,0.3426690175211273,0.9967139746609023,0.48346000552418383,0.27587353886946886
0.5192938285540204,0.8342383408326873,0.3300563319580153,1.000134403122296,0.4691289416601999,0.2682952227856798
0.5047245348517991,0.8200817856190626,0.31698699899458205,1.0009816578672075,0.452591542411942,0.2608083444028675
0.4895019387704919,0.8050333111588154,0.3035944371626734,0.9990636274865443,0.4342516136605598,0.25345500578060765
0.4736736270391547,0.7891990060871711,0.29006368090527757,0.9942290113325711,0.4145839545142433,0.2462841241328246
0.45732068352111666,0.7726964906550559,0.27662846043661,0.9863781363818471,0.3941085464193016,0.23934981798456406
0.4405573812345509,0.7556484827267977,0.26356514260508407,0.9754732470327737,0.3733644694308973,0.2327093074619955
0.423528861490013,0.73817717887866,0.2511836373092444,0.9615472753121427,0.35288499052657757,0.22642043819941413
0.40640669295333104,0.7203996226970689,0.23981562432631262,0.9447101574737722,0.3331750197847911,0.22053898144643228
0.3893823913849417,0.7024241354592756,0.22980068726342937,0.9251519068556147,0.31469182945426577,0.21511589455498661
0.3726591758742633,0.6843478044916317,0.22147113168983132,0.9031418668317482,0.29782961069849223,0.21019474200790905
0.3564424198746341,0.6662549644105251,0.21513639488887948,0.8790238316374575,0.2829081339879422,0.20580947510432662
0.34092940641726005,0.6482165659653477,0.21106801287060145,0.8532070141258413,0.270165508203832,0.20198274785051132
0.3262991003274799,0.630290303905212,0.20948609128889287,0.8261531351467697,0.2597548200305984,0.19872490896669764
0.3127026940404809,0.6125213654437525,0.21054813306046435,0.7983601876887374,0.2517442898871351,0.19603375841992707
0.3002556610733893,0.5949436603493272,0.21434091595298524,0.7703436714256114,0.2461205045888306,0.19389509614934242
0.28903196189813424,0.577581398656482,0.22087590301466759,0.7426162846725158,0.24279427195126888,0.19228402621233825
0.2790608968381833,0.5604508896029076,0.23008842626902748,0.7156671897214832,0.24160867270647418,0.19116691736573874
0.27032690168933393,0.54356244393724,0.24184063044471196,0.6899420268207928,0.24234893940003913,0.19050386680942988
0.2627723510857402,0.5269222706581063,0.25592791947091376,0.665824838272514,0.24475384777664624,0.19025147239983922
0.25630319270954416,0.5105342688766904,0.2720884328798132,0.6436229775784211,0.24852834313660402,0.19036569379921833
0.2507970042568525,0.4944016267037286,0.2900149073258184,0.6235559232623595,0.25335712752435835,0.19080457691688815
0.24611286586031098,0.47852815280238603,0.3093681605716611,0.6057487006004809,0.25891889691317205,0.19153062904457513
0.24210229174746883,0.46291928320254655,0.3297913765524727,0.5902303483137353,0.26490084375881395,0.19251266298871247
0.23862037981823017,0.4475827262950577,0.35092437024161743,0.5769375661322624,0.2710129414384163,0.19372697440281883
0.23553632397117952,0.4325287321343181,0.3724170650299516,0.5657233609142996,0.2770014222809646,0.19515777332573062
0.2327424920559558,0.4177699971761856,0.3939415145471999,0.5563701938558852,0.2826607731555735,0.19679685371176267
0.23016139628028823,0.4033212407730143,0.41520193425863067,0.5486068405154986,0.28784352502705496,0.19864254821078173
0.22775006090396033,0.3891985132324089,0.4359423636308146,0.5421279297330879,0.29246712491257154,0.20069807444024035
0.22550150776022912,0.37541831500492717,0.4559517451130669,0.536614945771245,0.29651726277128904,0.20296942883767075
0.2234433144354226,0.3619966206771562,0.4750663705157839,0.5317573750969181,0.30004718551048304,0.20546302111391443
0.22163343277471717,0.34894790827923955,0.4931697989943762,0.5272726648800464,0.30317275916914427,0.20818326368135662
0.22015366761962987,0.3362842928126071,0.5101904859763033,0.5229237379542706,0.30606332283994375,0.21113033479053847
0.2191013906347378,0.32401485234781435,0.5260974730667551,0.5185329752722391,0.30892869080835594,0.21429832132939258
0.2185801887576704,0.31214521579744275,0.5408945711103389,0.5139918215653588,0.31200297444374786,0.21767391838973724
0.21869021275198589,0.30067745466849066,0.5546135197710564,0.5092654764663176,0.3155261822416193,0.2212358199302379
0.2195189950625803,0.2896102887621789,0.5673066264835787,0.504392480011885,0.3197247858967747,0.22495488120026483
0.22113344916310484,0.2789395807413449,0.5790393763140171,0.4994793626931401,0.3247925873701948,0.22879507274646108
0.22357365099400167,0.2686590601671958,0.5898834646156806,0.4946908786100134,0.3308732683905496,0.23271518195802066
0.22684884706797492,0.258761187781219,0.5999106403132011,0.49023664851187215,0.33804594029322393,0.23667115558074617
0.23093594660359226,0.24923804918451803,0.6091876643931403,0.4863552826028363,0.3463148390939405,0.24061891978622874
0.23578055186044622,0.2400821568811644,0.617772591839639,0.4832972105048532,0.35560403893591386,0.24451746732323504
0.24130037769969562,0.2312870432431197,0.6257124824349849,0.48130750371579256,0.36575770661467805,0.24833196765774138
0.24739072386969352,0.2228475453898731,0.6330425431542788,0.48060992831478877,0.37654601843547475,0.2520366388349142
0.25393150566722167,0.21475971577248537,0.6397866084690784,0.4813933156010929,0.38767644086404407,0.25561712124775604
0.2607952320157787,0.2070203372252019,0.6459587800576333,0.4838010981064961,0.39880967286018915,0.2590721147435596
0.2678552529986226,0.19962607452637054,0.6515659784594521,0.4879245489625387,0.4095791936141953,0.2624140815463436
0.2749935861931932,0.19257235072624468,0.6566111092240706,0.4937999121291518,0.4196130833549487,0.2656688770295832
0.2821076736209781,0.18585208916474286,0.6610965170924277,0.5014092526990763,0.42855660870397044,0.2688742457588374
0.28911551576040406,0.17945450416179662,0.6650273947135187,0.5106845257044894,0.43609400078482,0.27207720733971325
0.29595876925016473,0.17336414789596832,0.6684148274451033,0.5215140927011438,0.44196790764139604,0.27533044999083883
0.3026035707512848,0.16756042202052437,0.6712781921920455,0.5337507373472322,0.44599516697609043,0.2786879427544023
0.30903904827668327,0.16201773593703525,0.6736466844295972,0.5472201656473504,0.4480778071491519,0.2822000623006726
0.3152736883109831,0.15670643783616048,0.6755598210233558,0.5617290339505301,0.4482085236072815,0.2859085993708071
0.32132992598553206,0.15159456146123193,0.6770668535683052,0.5770717254832578,0.4464702696354987,0.2898420551774531
0.3272374996771656,0.14665032672902112,0.6782251228365511,0.593035377176851,0.4430300170986787,0.29401165257172956
0.3330262444386841,0.14184521550914808,0.6790974833035672,0.6094030116752661,0.4381271563570408,0.2984084652228684
0.3387190761816049,0.137157328343139,0.6797490200778294,0.6259550110423195,0.43205738718732467,0.3030020077336696
0.3443259291575094,0.1325746298164081,0.680243360333453,0.6424695259846913,0.42515327861787827,0.30774053115003003
0.34983934614357587,0.1280976271810356,0.6806389385164281,0.6587226903640192,0.41776292229212686,0.31255313623781633
0.3552322827209309,0.12374101544306926,0.6809856005160231,0.6744896509715347,0.41022825227071724,0.3173536598513402
