x-axis (g),y-axis (g),z-axis (g),x-axis (deg/s),y-axis (deg/s),z-axis (deg/s)
0.21851717845348692,0.20879157485385233,0.298438019633367,0.26345379890278436,0.6302711470017789,0.9273110127453925
0.23957169501469538,0.22081391935265476,0.26135669057315186,0.24435387803396394,0.6260896170766201,0.9063489753348812
0.26058965863357875,0.2327527580672895,0.22479875199451216,0.22557752169966117,0.6216778542781601,0.8854317572908439
0.28169083343569173,0.24462059689204704,0.18944557315638316,0.20741841742292963,0.6167361934079321,0.8645332822759665
0.3029803366273024,0.2564271087267903,0.1559391640822479,0.19014340181610942,0.6110030758430459,0.843646114301304
0.32453997459836487,0.26818311171697506,0.12487448329233342,0.1739859719589226,0.6042709972438541,0.8227880911743651
0.3464214662328392,0.2799054805214574,0.09679474074863836,0.159142223932529,0.5963980950170737,0.8020057304576579
0.36864171837810655,0.29162233171019375,0.07218883876248058,0.14576930760437476,0.5873147541897087,0.7813741958833601
0.3911802039266581,0.3033777856599099,0.05149001948925193,0.13398630579875367,0.5770250255955928,0.7609939946114977
0.4139784023344902,0.31523564165077195,0.03507482005656078,0.12387727741829321,0.5656030608689607,0.7409849144976534
0.43694119373208296,0.3272814058718732,0.023261561586663083,0.11549606041964675,0.5531851390749226,0.7214779688851947
0.4599400459131824,0.33962227194018996,0.016307796926513782,0.10887232153310893,0.5399581599567311,0.7026062716292772
0.48281779199964847,0.3523848528343954,0.01440639061954864,0.10401827178150157,0.526145687075253,0.6844958093280228
0.5053947596885354,0.3657106808928485,0.017680178519599084,0.10093544341230949,0.5119927287191547,0.667257017085969
0.5274759769272611,0.37974970679396525,0.02617542828969592,0.09962094481830315,0.49775044384325956,0.650977915683359
0.5488591426376377,0.3946522186834427,0.03985457208303496,0.1000726724500497,0.48366186263314437,0.635719356483573
0.5693430165406943,0.41055975168750625,0.058588888008037694,0.10229305709681685,0.4699495329867778,0.6215126742769841
0.58873585331426,0.4275956536755151,0.08215195059601879,0.10629104855806261,0.45680576763201863,0.6083597961907325
0.6068634886427663,0.44585600875112014,0.11021474050896969,0.11208218832663377,0.44438589750889573,0.596235622532173
0.6235766837328671,0.4654015949336387,0.142343293991146,0.1196867740577785,0.43280466180709865,0.5850923035133768
0.6387573551055781,0.4862514717683324,0.17799968305747849,0.12912627145091385,0.42213560809384576,0.5748648981601263
0.6523233605360439,0.508378666784779,0.21654695420138018,0.14041826808262703,0.4124131576603826,0.5654778251849893
0.6642315799676586,0.5317082698650372,0.25725842820468625,0.1535703799566462,0.40363682633784354,0.5568515002658472
0.6744791194302431,0.5561180667557533,0.2993314928915653,0.16857360689868853,0.39577698797323313,0.5489085942619447
0.6831025712762135,0.5814416627420854,0.3419057243055718,0.18539568139787196,0.3887815284175881,0.5415794322356382
0.6901753782589648,0.6074738795800821,0.3840848716552305,0.20397496369071408,0.38258275823387594,0.5348061707389085
0.6958034637242707,0.6339780657363966,0.42496195956957894,0.2242154033444466,0.37710402348718286,0.5285455265126552
0.7001193967063314,0.6606948513658297,0.46364651840628346,0.24598301690034863,0.3722655635696293,0.5227699697022871
0.7032754507385307,0.6873518112274423,0.4992927672840497,0.26910422775245463,0.3679892987469324,0.517467426624508
0.7054359816746711,0.713673473047829,0.5311274586835975,0.2933662863410634,0.3642023732914395,0.5126396511424066
0.7067695875854958,0.7393911241561048,0.5584760562936157,0.31851984582536985,0.36083941891716925,0.5082995128286082
0.7074415199145441,0.764251920766575,0.5807859621085011,0.34428362169307347,0.35784362598393243,0.5044675103567068
0.7076067890628156,0.7880268847329183,0.5976456318224374,0.3703509245387007,0.3551668075592546,0.5011678488556254
0.7074043513877739,0.810517472880091,0.6087986112417583,0.39639773407898116,0.35276870803843763,0.4984244216502656
0.7069526824797014,0.831560514281414,0.6141517781189793,0.42209188837438155,0.3506158409978742,0.49625701318497456
0.7063469396739437,0.8510314213728801,0.6137773672919666,0.44710290184267154,0.3486801407669309,0.49467799561373327
0.7056578026810327,0.8688456828707689,0.6079086737212875,0.47111190271172426,0.3469376820688456,0.4936897319381749
0.7049319634563905,0.8849587330910834,0.5969296483494851,0.493821195547132,0.345367667477727,0.4932828293396765
0.7041941237119957,0.899364358716282,0.5813589063579516,0.5149630046043241,0.34395181052349894,0.49343531300518717
0.7034502590872717,0.9120918481068204,0.5618289386536364,0.5343070331659215,0.3426741612628652,0.49411271838448884
0.7026918301612888,0.923202110265843,0.539061540256487,0.5516665744101973,0.34152133965268094,0.4952690329313816
0.7019005677693432,0.9327829932222493,0.5138406322188375,0.5669030206672132,0.34048306852666704,0.4968483607647194
0.7010534369531819,0.9409440194568552,0.4869837494589427,0.5799287293211922,0.33955283997552815,0.4987871383869123
0.7001273914188705,0.9478107348307416,0.4593134924671879,0.5907083045224918,0.33872851266053605,0.5010166989057061
0.6991035672367512,0.9535188434950702,0.43163019755187454,0.5992584349707527,0.33801262735539545,0.5034659676239505
0.6979706270052933,0.9582082802959182,0.4046869733201491,0.6056464822340875,0.3374122458152988,0.5060640740691522
0.6967270481301734,0.9620173589034329,0.3791680888815121,0.609988037272557,0.33693816334006277,0.5087426843145276
0.6953822440613131,0.9650771311484292,0.35567149273092946,0.612443654420933,0.33660341485521705,0.5114378916088459
0.6939565072312102,0.967506101441513,0.3346960029519525,0.6132149351152543,0.33642108208209903,0.5140915506557515
0.6924798588110502,0.969405457839404,0.31663345260545517,0.6125400746892596,0.3364015071806383,0.5166519980688149
0.6909899755167216,0.9708550041405825,0.3017658123215671,0.6106889141696838,0.33654911611037297,0.5190741642622445
0.6895294309638587,0.9719099992505408,0.29026705804507197,0.6079574668197105,0.3368591418251529,0.5213191451438185
0.6881425335584604,0.9725991236396132,0.28220931750439776,0.6046618288157977,0.3373146021978967,0.5233533597062409
0.6868720617162745,0.9729237903892406,0.27757262498883406,0.60113134706174,0.3378839202249061,0.5251474660618369
0.6857561896512746,0.9728589931865756,0.27625744981420736,0.5977009150101446,0.3385195667774018,0.5266752381152078
0.6848258646120641,0.9723558306124417,0.2780990474469611,0.5947023064032649,0.33915805449699554,0.5279126134085081
0.684102842883498,0.9713457629490714,0.282882620223123,0.5924545394032253,0.33972151521255206,0.5288371068452016
0.6835985224447597,0.9697465459472985,0.2903582719559928,0.591253386498859,0.34012095725280656,0.529427744382261
0.6833136314867294,0.9674696511272134,0.30025480063478166,0.5913602997699834,0.34026113312165024,0.5296656074474165
0.6832387513552951,0.9644288340527456,0.3122914967108908,0.5929911917289662,0.3400467668399928,0.5295349977592048
0.6833555773198989,0.9605493642198091,0.3261872989994823,0.5963056793270877,0.3393897123165187,0.5290251411797934
0.6836387577588915,0.955777299153984,0.3416669000557192,0.6013975397785993,0.33821646015444845,0.528132258326935
0.6840581076629779,0.9500880887952732,0.35846367744900326,0.60828721750739,0.33647530130969844,0.5268617505003561
0.6845809698617431,0.9434937514506432,0.37631964071011986,0.616917239335695,0.3341424107025951,0.5252301938713355
0.685174499021955,0.9360478839375045,0.3949829040978357,0.6271513223589733,0.33122614604394374,0.5232668133929584
0.6858076687575053,0.9278478653694484,0.414203495209481,0.6387777860075554,0.3277689730790309,0.5210141281019359
0.6864528480760467,0.9190337885089386,0.4337285564326286,0.6515176074249657,0.3238466248967456,0.518527524391526
0.6870868543618107,0.9097838980691864,0.4532981548629302,0.6650371009165063,0.319564365734162,0.5158736204907881
0.6876914585869209,0.9003066154871602,0.4726429512610039,0.6789647845664176,0.3150505337422304,0.5131274241608195
0.6882533855201344,0.8908295588950914,0.4914848592577421,0.6929115592676959,0.310447848024338,0.5103684404013373
