x-axis (g),y-axis (g),z-axis (g),x-axis (deg/s),y-axis (deg/s),z-axis (deg/s)
0.3622464452881452,0.344172831959192,0.2291030864389521,0.169133107858436,0.43286058741544786,0.856205428246692
0.3873114283476171,0.3558288675015734,0.22595882131440745,0.170529801850305,0.42624472964993193,0.8553222780589915
0.4119007555299035,0.3675160589372344,0.22267358360585707,0.17189531915492223,0.4200933123513607,0.8543511543780634
0.43577987001944535,0.37938863538577744,0.219874425557911,0.17320942550106738,0.41451492699920706,0.8531636976947251
0.45875011058638093,0.39158639932023,0.21821009463619057,0.1744491417837748,0.4095517770618331,0.8516459727502863
0.4806676765346238,0.4042288625368402,0.21834941200074534,0.17559778264979817,0.40516265617102143,0.8497000342858253
0.5014597913728753,0.4174109211643313,0.22097571733792454,0.1766550725220202,0.40121469568481966,0.8472437757616927
0.5211362784908203,0.4312000297780524,0.2267751305161103,0.17764742871480876,0.3974855243912451,0.8442092957725366
0.5397950940532574,0.44563479126787003,0.236417172482283,0.1786374028401048,0.39367633398435675,0.8405401285507932
0.5576208372634546,0.46072485574628147,0.2505273385651366,0.17973125422416125,0.389435123729372,0.8361877598241532
0.5748758362182383,0.47645200943265986,0.2696524050400407,0.18108370113471572,0.38438824296301954,0.8311078835661627
0.5918840404458621,0.4927723250371971,0.29422043678795395,0.18289905802919063,0.37817738466090073,0.8252568488445058
0.6090085857295381,0.5096192328107991,0.3244985113057556,0.18542821209329385,0.3704985069078487,0.818588702371205
0.6266244789632949,0.5269073530744397,0.36055195664170936,0.18896120411631093,0.3611388388536474,0.8110531575051342
0.6450883298085259,0.5445369065892015,0.402209318714578,0.19381553409365945,0.3500081934440876,0.8025947222503172
0.6647073883724541,0.5623984910863244,0.44903726410152295,0.20032068225324617,0.3371612521845032,0.7931531062389846
0.6857103015893645,0.5803779850975156,0.5003291680599293,0.20879968977991462,0.3228082623773411,0.7826649091704119
0.7082219571233492,0.5983613194174824,0.5551102601554175,0.21954894837096034,0.3073126185354477,0.7710664798170702
0.7322445403122599,0.6162388476830007,0.6121609708112287,0.23281757455971164,0.2911749875551486,0.7582977338214743
0.7576465019131337,0.6339090554028707,0.6700586480011611,0.2487878696702691,0.2750048686241156,0.7443066371395617
0.7841605536910692,0.6512813744191539,0.7272362279833348,0.26755837348090633,0.2594816376604569,0.7290540055579051
0.8113911211428092,0.668277918130827,0.7820548955493379,0.2891309031666005,0.24530810411579052,0.7125182427295009
0.8388309446446679,0.6848340203246568,0.83288640578721,0.3134027336537244,0.23316031488281017,0.6946996410433813
0.8658857948904765,0.700897543191898,0.8781996942138928,0.3401647367227694,0.22363771164310173,0.6756239005910581
0.8919056188627801,0.7164270120638783,0.916645780819577,0.3691058793251204,0.21721775203440308,0.6553445785994317
0.916219916413183,0.731388728110417,0.9471348431723078,0.3998240195988462,0.21421874392687312,0.6339442600860095
0.9381748112328738,0.745753097548769,0.9688997162509136,0.43184246976242285,0.21477395230907642,0.6115343336522949
0.9571691540155243,0.7594904887924047,0.9815409468490911,0.4646313576519523,0.21881908629523447,0.588253356617672
0.972687091176445,0.7725669803941739,0.9850498182794261,0.49763245019105257,0.22609414928113203,0.5642640929334509
0.9843248402677424,0.7849403872765766,0.9798073590342707,0.5302858339613058,0.23615944215837878,0.5397493974991937
0.9918099041356166,0.7965569475017653,0.9665591221696012,0.5620567031215117,0.24842435548453007,0.5149071945130931
0.9950115839433643,0.8073490161598865,0.9463673213324335,0.5924604953480743,0.2621865728065436,0.4899448497557104
0.9939423582712368,0.8172340488609638,0.9205435850446707,0.6210847425742929,0.2766785191791447,0.4650732637343304
0.9887504171861933,0.8261150691714257,0.8905670066659529,0.6476062536692113,0.2911173880550595,0.44050101329551994
0.9797043123135389,0.8338827084373354,0.8579932117694313,0.6718025988045012,0.30475489955011115,0.4164288449939664
0.9671712490449863,0.8404187904284396,0.824360759612912,0.69355728967999,0.31692308682272813,0.39304477779283564
0.9515909597039885,0.8456013154622127,0.7911013023559786,0.7128585100978707,0.327072849216724,0.3705200109917978
0.9334473274709831,0.8493105875034619,0.7594595470416405,0.7297917095703413,0.33480270015670865,0.3490057622564675
0.9132399690487142,0.8514361309955285,0.7304282425959768,0.7445267920694154,0.3398760048971541,0.3286310873425819
0.8914578365911193,0.8518839686123204,0.7047022226010906,0.7573009806420995,0.3422259669652383,0.3095016643633724
0.8685565899590512,0.8505837820411624,0.6826540759807956,0.7683986916587174,0.3419485978098389,0.29169946705335525
0.8449410556434406,0.8474954589597049,0.6643324104130062,0.7781298943285009,0.3392848111502744,0.27528320772276754
0.820953574177557,0.842614542416326,0.6494820422577043,0.7868084562793586,0.33459355188056306,0.260289403877804
0.7968684928914539,0.8359761439217495,0.6375839136373649,0.7947318889650222,0.32831844503146795,0.2467339131884457
0.7728925339247151,0.8276569570203991,0.6279112110947701,0.802163721001289,0.3209507983150816,0.234613788073757
0.7491703019441032,0.8177751105915035,0.6195971300921558,0.8093194641343027,0.3129918979454114,0.2239093204602746
0.7257938271174541,0.8064877257606905,0.6117090592648112,0.8163568213263405,0.3049174078968429,0.21458617488347576
0.7028147911410462,0.7939861808249632,0.6033236830782556,0.8233704477617902,0.2971463421936426,0.20659753905714268
0.680257970428198,0.7804892375338583,0.5935976272858272,0.8303912415856837,0.2900165682309938,0.1998862503415736
0.6581344521474943,0.7662343309527622,0.5818287761267392,0.837389837428838,0.28376816776866254,0.19438687981627858
0.6364533259391476,0.751467464767586,0.5675042261634808,0.8442837231590757,0.27853528892143126,0.19002776966535473
0.6152308077002954,0.7364322747322859,0.5503319408417386,0.850947213664949,0.2743464266398451,0.18673302262402017
0.5944960852325795,0.7213589155975425,0.530254448576213,0.8572234027954229,0.27113242711459196,0.18442443440857678
0.5742935570554393,0.706453482580483,0.50744429209617,0.8629371768236791,0.2687409720224712,0.18302334327076036
0.5546815308724395,0.6918886899021204,0.4822822910174882,0.8679084044767289,0.2669558992083065,0.18245234861662657
0.5357278223784939,0.6777964908784444,0.4553209285942181,0.8719645087613943,0.26551948113742174,0.18263682776236773
0.5175030158344656,0.6642632340494155,0.42723623073782346,0.8749517596731351,0.2641557198598321,0.18350616173966677
0.5000723870533871,0.6513278088516251,0.3987722970606009,0.8767447873560477,0.2625928204039902,0.1849945728791652
0.4834876255041119,0.6389830472911386,0.3706831136317794,0.8772539849904927,0.26058325214374606,0.1870414830632414
0.46777951162197523,0.627180424029677,0.3436763899602735,0.8764306336179728,0.2579201663368062,0.18959132476409243
0.4529526040052451,0.6158378494463033,0.3183639066091827,0.8742697241894807,0.25444936562885784,0.192592777703457
0.4389827750539307,0.6048500954464977,0.29522224814578907,0.8708105663322325,0.25007647139193384,0.19599745994055773
0.4258181192509731,0.5941011517847833,0.2745668678435905,0.8661353544058227,0.24476936128667764,0.19975816840693472
0.41338337205768866,0.5834776028023062,0.25654124958092944,0.8603659099835348,0.2385563116922566,0.20382683287667164
0.4015875542545528,0.5728819621675508,0.24112158533327563,0.8536588410383894,0.23152054671541963,0.20815240980116556
0.3903341379534381,0.5622448260592424,0.22813597908578467,0.8461993604545861,0.22379204980076803,0.21267898828909923
0.3795326614732373,0.5515347190553718,0.2172958388950031,0.8381940007804953,0.2155375334480286,0.21734440024471596
0.3691104458139001,0.5407646217967128,0.20823595328066424,0.8298624595743728,0.206949400982846,0.222079612732092
0.3590229263725711,0.5299943876610322,0.20055888800608568,0.821428820010379,0.19823439963633066,0.22680912881990817
0.3492611417987571,0.5193285705417113,0.19387889211847542,0.8131124210686062,0.18960249446321759,0.2314525337987567
