x-axis (g),y-axis (g),z-axis (g),x-axis (deg/s),y-axis (deg/s),z-axis (deg/s)
0.6097855551735466,0.9551315625307081,0.3977280677409211,0.7453455429452571,0.47550272656368897,0.42401464494142155
0.5996883086225389,0.9521060777999618,0.38056603771864306,0.741512480724409,0.4810819038583019,0.4170262291550869
0.5896388897738737,0.9489536852456146,0.363870764454649,0.7375453064619738,0.4865928660770835,0.4101097764580544
0.579590198997649,0.9455218520266819,0.3481292243928927,0.7333825083892971,0.4918643340378722,0.40332964216729056
0.5694951460252572,0.9416796990698311,0.3337755049079784,0.7289924982216384,0.49672670118039636,0.3967459844170422
0.5593100318886849,0.9373259324370794,0.3211692852535252,0.7243847523197646,0.5010150840060555,0.3904125134172925
0.5489982120263248,0.9323942057417488,0.3105800444475232,0.7196163397060611,0.5045729519546589,0.38437461155192776
0.538533972833094,0.9268556111385864,0.3021778574258255,0.7147930392409323,0.5072564958738405,0.37866792261442966
0.5279064377530376,0.920718239860826,0.29603102687601573,0.7100649159833733,0.5089397256892203,0.37331744612542345
0.5171232102045009,0.9140239872417822,0.29211020305715846,0.7056168717074,0.5095201096142025,0.3683371159290011
0.5062133805622756,0.9068429815042273,0.2902981284953451,0.7016552272930393,0.5089244058738225,0.3637297994092632
0.4952294895282192,0.89926617531215,0.2904037544680119,0.6983917786893102,0.5071142155741831,0.35948762941053924
0.4842480598989611,0.8913967449632664,0.2921792388892665,0.6960269633838639,0.504090717500288,0.3555925762414282
0.47336838446552737,0.8833409907292622,0.29533825866891283,0.6947337770172206,0.499898040089927,0.3520171796509218
0.46270938337075357,0.8751994249587834,0.299574144380161,0.6946439088311078,0.49462478276423827,0.3487253855945358
0.4524045070612176,0.8670586780854186,0.3045765473897749,0.6958372560808769,0.48840331148918587,0.3456734637803248
0.4425948437732155,0.8589847556347234,0.31004564571923465,0.6983355780671145,0.48140660972506516,0.3428110129125631
0.43342077372142673,0.8510180525917148,0.31570324571723957,0.7021006108068122,0.4738426499157615,0.34008208540564255
0.4250126762236742,0.8431703867395789,0.3213005022489764,0.7070365324118787,0.4659464446797345,0.3374264776961052
0.41748132339956,0.8354241612907306,0.32662232389124973,0.7129962890593187,0.457970123190938,0.3347812335836109
0.41090867115160545,0.8277336198260767,0.33148882131208535,0.719790993943193,0.4501715407625109,0.3320823957819962
0.40533977623219175,0.8200280222491881,0.33575437491135823,0.7272014166694355,0.4428020550863426,0.32926701652153045
0.40077652433338623,0.8122164563031619,0.33930502982877037,0.7349904956181644,0.43609418135978645,0.32627540472185457
0.3971737510330917,0.804193910328378,0.34205497014364206,0.7429158267126809,0.43024986525495035,0.3230535492303596
0.39443818304859146,0.7958481724843172,0.34394278577184145,0.7507411949748307,0.4254300862648702,0.31955561977291586
0.3924304338795781,0.7870670908522781,0.3449281385580379,0.7582463992693634,0.42174642739302115,0.31574641448511115
0.3909700709813966,0.7777457272287471,0.34498927667184065,0.7652348505874317,0.41925512703936135,0.3116035995392394
0.38984354824331174,0.7677929631342574,0.3441216595852183,0.7715386736397669,0.417953974775637,0.3071195758211184
0.3888145852016824,0.7571371665675023,0.34233776095115154,0.7770212853361431,0.4177822360315425,0.3023028118895628
0.3876363894699351,0.7457305984043923,0.33966793332654116,0.7815776403779184,0.41862360417147015,0.29717850212190755
0.3860649754164081,0.7335523234939292,0.3361620634326167,0.7851325072528875,0.4203119948422545,0.2917884430415678
0.3838727410128323,0.7206094883951664,0.3318916318665519,0.7876372569614288,0.42263982895267715,0.2861900669648488
0.38086143288923663,0.7069369299959455,0.3269517244787612,0.7890657076046069,0.4253683079535851,0.2804546267580484
0.37687365945391127,0.6925951814696012,0.32146252682281035,0.7894095721635164,0.4282390770296249,0.27466458429853485
0.371802201439985,0.677667038672465,0.31556986649458213,0.7886740110323381,0.4309866048512485,0.268910313388201
0.36559651204268295,0.6622529358402492,0.3094444452375762,0.78687370558364,0.4333505864952779,0.26328628056420655
0.35826598463895726,0.6464654493558929,0.3032795147241661,0.784029757105775,0.43508769999764985,0.2578869100753335
0.34987978149519594,0.6304232981114968,0.29728688603043013,0.7801675906673705,0.43598211470941983,0.25280236859003663
0.34056324623721385,0.6142452351620079,0.2916913108283825,0.775315919171107,0.4358542560369073,0.2481145183815406
0.3304911495131052,0.5980442257686672,0.28672341971485266,0.7695067106723813,0.43456746805915464,0.24389328346926484
0.3198782247894363,0.5819222808396594,0.2826115379487501,0.7627760108561366,0.43203237198159633,0.24019365152384398
0.3089676246567808,0.565966263168886,0.27957281065435335,0.7551654079230562,0.42820888134714913,0.23705349665798128
0.2980180551282255,0.5502449095248548,0.27780414985684554,0.7467238909679154,0.4231059902497799,0.23449235715025787
0.28729041756519674,0.5348072191028245,0.27747355877493257,0.7375098437593666,0.41677958464773995,0.23251124131385578
0.2770348006944985,0.5196822542961108,0.2787123917675345,0.7275929293586054,0.4093286273121575,0.23109346846263837
0.2674786188602231,0.5048802906556378,0.28160907135688895,0.7170556510647512,0.4008901254888807,0.2302064849329253
0.2588165917758733,0.4903951476613685,0.2862047097248453,0.7059944148107231,0.39163330324088863,0.2298045320658384
0.2512031141413689,0.47620743922537423,0.29249097621093006,0.6945199608240262,0.3817533693462072,0.22983198825167797
0.24474738227257467,0.46228841106400625,0.3004104215566731,0.6827570730042293,0.37146520360188473,0.2302271642247998
0.23951144325118023,0.448603988558876,0.30985932194343074,0.6708435100774166,0.3609971910064123,0.2309263025150819
0.23551112503077926,0.43511864903419584,0.3206929497566984,0.6589281326117362,0.35058532911652457,0.23186752000511243
0.2327196084165981,0.4217987595722641,0.33273302203437355,0.6471682261021621,0.34046763441981187,0.23299443750426185
0.23107322782040562,0.40861508550792075,0.34577693009396554,0.6357260458700379,0.3308787931707193,0.23425926165084549
0.23047894918554596,0.39554427196040487,0.3596082230140348,0.6247646384776121,0.32204495202886674,0.23562512083092357
0.23082287979957344,0.38256922381251657,0.37400771139330424,0.6144430303212227,0.3141785307007735,0.23706750586030972
0.23197912192700215,0.36967844750661605,0.388764483874774,0.604910919140267,0.30747296403396224,0.23857472495496512
0.23381829272325316,0.35686455699804726,0.40368609475857925,0.5963030581041474,0.30209734080206896,0.2401473475728964
0.23621509531904578,0.3441222703489059,0.4186071934405742,0.5887335817908161,0.2981909923246181,0.24179667930312618
0.2390544350609104,0.33144631641605987,0.43339593089240924,0.5822905827108589,0.29585818424674065,0.24354237621966343
0.24223572185994047,0.318829717814283,0.44795759816964004,0.5770312975623062,0.29516316546051324,0.24540936813345698
0.24567517257585075,0.3062629049783741,0.4622351268263362,0.572978294084593,0.2961259150390951,0.24742431222691166
0.24930611218521145,0.29373404005920145,0.4762063063987486,0.5701170519363224,0.2987189879321463,0.24961183817667404
0.2530774536923693,0.28123078883348673,0.4898778395305017,0.5683952954831701,0.3028658820366299,0.2519908699964376
0.2569506987721804,0.2687435821971267,0.5032766444699789,0.5677243567340338,0.30844132537418756,0.25457131594994703
0.26089592960019187,0.2562701731992068,0.5164391051291144,0.5679827213920038,0.3152738087722886,0.2573514042092609
0.2648873453028356,0.2438210461986391,0.5293992329566479,0.5690217443476638,0.32315056751409815,0.2603159076076149
0.2688989256248404,0.23142500346369294,0.5421769113171929,0.5706733237471547,0.3318250505532301,0.2634354461555545
0.2729007759363212,0.21913407718552147,0.554767509741851,0.5727591124881474,0.34102671850750677,0.26666698262923305
0.2768566228061405,0.20702682732908906,0.5671341527707061,0.5751006459882401,0.3504727965482747,0.2699555377564187
0.28072279446131354,0.19520911918182887,0.5792037833785973,0.5775296027227963,0.3598813939128974,0.2732370522783852
