x-axis (g),y-axis (g),z-axis (g),x-axis (deg/s),y-axis (deg/s),z-axis (deg/s)
0.664979667249724,0.7935319129822836,0.44146461079012533,0.7908669129343042,0.2680190814812038,0.36733851304378756
0.6521615434317065,0.7772806680775257,0.426494885649632,0.8002220890895615,0.2636489989117212,0.3534447422029682
0.6392136944172025,0.7610987523331344,0.41145696804673476,0.8093562106183381,0.2593478080076516,0.3396440960544579
0.6258948394766715,0.74497275573772,0.39625902302903115,0.8179969593078925,0.2551736440897549,0.32598662064406986
0.6119976383699116,0.7288966746249189,0.3808351493540508,0.8258941208375056,0.251178949287228,0.31252348007911174
0.5973620920984624,0.7128744274896193,0.3651606130309646,0.8328280306304472,0.24740746593850796,0.29930844005089957
0.5818846031585099,0.6969210195618157,0.34926357734983426,0.8386159662375978,0.24389176295935736,0.28639877028141325
0.5655223318205808,0.6810624011829202,0.3332323332190924,0.8431163465669077,0.2406514777879632,0.2738554841942199
0.5482929101153832,0.6653341761049927,0.3172174764564823,0.8462307475338253,0.23769238825754385,0.26174290435640374
0.5302699609970506,0.6497794007506821,0.3014289440396501,0.8479038725227992,0.23500635448043994,0.2501276060073093
0.5115751818913704,0.6344457687595122,0.28612826271604325,0.848121716491324,0.23257209871100185,0.23907684268327348
0.4923679662406027,0.6193824950645505,0.2716167424064874,0.8469082309925918,0.230356728142236,0.22865659421433865
0.47283364289804725,0.6046372020535282,0.25822063570618087,0.8443208341428805,0.22831785683093717,0.21892939710985976
0.45317141239141256,0.5902530717675192,0.24627446717495,0.8404451180032652,0.22640615146910184,0.2099521214209568
0.4335829624863902,0.5762664694321067,0.236103806873062,0.8353890913919695,0.22456811239837426,0.20177384889396419
0.41426257226373453,0.5627051730215532,0.22800872656427093,0.8292772651360962,0.22274890499855743,0.19443398783219196
0.39538928818483493,0.549587269505328,0.222249047172249,0.8222448455199006,0.22089507466056835,0.18796073411419384
0.3771215035948872,0.5369207089023286,0.2190322814899838,0.8144322557279728,0.21895700714610505,0.18236995866265016
0.3595940205074503,0.5247034490191481,0.21850491966612257,0.8059801587097428,0.21689103084165726,0.17766457217392664
0.34291744228113236,0.512924081707387,0.22074742111103018,0.797025110964891,0.2146610938353627,0.17383439020617078
0.3271795564377619,0.5015628083770035,0.22577298926978032,0.7876959367421963,0.21223998300788025,0.17085649706131162
0.3124482313183036,0.4905926287296085,0.23352993715936804,0.7781108763892952,0.2096100815075658,0.16869608580000445
0.29877527536762305,0.47998062033561606,0.2439072200974838,0.7683755306383422,0.20676368337499393,0.16730773411790073
0.2862006943184347,0.4696892139236957,0.256742531566493,0.7585815936384431,0.20370289930825883,0.1666370612349545
0.27475682449573047,0.45967740480330394,0.27183223744978896,0.7488063407364361,0.20043919644422267,0.16662269882710215
0.26447191016678967,0.4499018786884244,0.2889423664522471,0.7391128118685169,0.19699261931382445,0.1671984988727486
0.2553728159544542,0.4403180643664931,0.307819878808861,0.7295506079739774,0.19339074103359324,0.16829589285763039
0.2474867062092279,0.43088115101970814,0.328203495331826,0.7201571966689752,0.1896673955157709,0.1698463101746402
0.24084166561871845,0.42154712091474206,0.34983347472931386,0.7109596056150558,0.18586124469658474,0.17178355918666133
0.23546636387132147,0.41227384696174213,0.37245986662799335,0.7019763689997269,0.18201424028438978,0.17404607294018892
0.23138896897771494,0.4030222898065665,0.3958489270829588,0.6932195858018094,0.17817004701774633,0.17657892365930794
0.2286355796834461,0.3937578032274933,0.4197875485405438,0.6846969493212672,0.17437250254102357,0.1793355165534216
0.22722847263021476,0.38445152388683174,0.4440857140636237,0.6764136166196912,0.17066419558614515,0.1822788845134513
0.22718444478531033,0.3750817871916661,0.46857712478793945,0.6683738041765571,0.16708524664324734,0.18538252093151275
0.22851348105559818,0.36563548065050727,0.4931182612755026,0.6605820215585766,0.16367237129438547,0.18863070768310217
0.2312178997099188,0.3561092246369962,0.517586217951025,0.6530438867580115,0.1604582941099894,0.1920183183436401
0.23529203570113325,0.3465102616167196,0.5418756926942725,0.6457665028919977,0.15747155978221136,0.19555010171135884
0.24072242687249923,0.3368569406567853,0.5658955216334975,0.6387584134322065,0.15473675864366182,0.19923947621885493
0.24748838272698326,0.3271787044512483,0.589565125781842,0.6320291890081399,0.15227514793345104,0.2031068903608651
0.2555627506459919,0.317515519266142,0.6128111871684322,0.6255887300242365,0.1501056113919132,0.20717782651998318
0.2649126581367907,0.307916730618886,0.6355648048505477,0.6194463930367309,0.14824586213964583,0.2114805444810458
0.2755000063861804,0.29843937451489067,0.6577593036828385,0.613610062769813,0.14671376187391133,0.21604367575929673
0.2872815208603372,0.2891460205142005,0.6793287889103676,0.6080852942984858,0.14552860758756786,0.22089379019597785
0.3002082259678744,0.28010226376830605,0.7002074646838066,0.6028746407178613,0.14471222895126706,0.2260530618691374
0.31422429659704665,0.27137401414277457,0.7203296702216285,0.5979772610327767,0.14428974762965052,0.23153716206404423
0.32926534059437945,0.26302474849304824,0.7396305375457569,0.5933888725802691,0.14428987490877093,0.2373535026102552
0.34525627192506086,0.25511289542744814,0.758047141523626,0.5891020745753959,0.14474466496499958,0.24349994291608365
0.3621090321998733,0.24768951039238646,0.7755199964744149,0.5851070277076817,0.14568869478366114,0.2499640579294891
0.3797204962159695,0.24079637408213855,0.791994752257892,0.5813924330392004,0.14715770315578042,0.25672304135327845
0.3979709438474413,0.23446461173522662,0.8074239536489284,0.5779467159301515,0.1491867838551656,0.2637442881834966
0.4167234868220156,0.22871388851812902,0.8217687461304629,0.5747592913579067,0.15180828461066584,0.2709866628689021
0.4358247986045067,0.22355219115598782,0.8350004348731032,0.5718217692568028,0.15504960627732117,0.2784024146848959
0.45510740694849056,0.21897616260748062,0.8471018276122706,0.5691289548959737,0.15893111889062284,0.2859396518913727
0.47439367484677936,0.21497191893992476,0.8580683129807464,0.5666795110623052,0.1634644080398816,0.29354523375791963
0.4935014252210828,0.2115162489755966,0.8679086411704142,0.5644761756570845,0.16865103389518754,0.30116788873710515
0.5122509717383297,0.2085780800545054,0.876645382377656,0.5625254683995279,0.17448192737770782,0.30876132321554095
0.5304731213393764,0.206120088439086,0.884315040491116,0.5608368703109986,0.18093746832353125,0.3162870543659893
0.5480175355144927,0.20410034015793957,0.8909677964165442,0.5594215149337172,0.18798819778652773,0.3237166887616431
0.5647607005725234,0.20247386580614513,0.8966668499897693,0.5582904853702592,0.195596022764211,0.33103338101102864
0.580612684562133,0.2011940981940788,0.9014873251520767,0.5574528604320595,0.2037156905318153,0.33823224757589687
0.5955218686650201,0.2002141311295246,0.9055147038933277,0.5569136909155796,0.21229625568969945,0.3453195815529474
0.6094769456219035,0.19948778697442607,0.9088427641658515,0.5566721085694664,0.22128224852344197,0.3523108127636185
0.6225056796411617,0.1989705059567609,0.9115710184682154,0.556719772318861,0.2306142870231746,0.3592272785731426
0.6346702126880926,0.19862008814356402,0.9138016845455446,0.5570398372016565,0.2402289596760822,0.366092005237529
0.6460590603820612,0.19839732715281416,0.9156362670453865,0.5576065917344522,0.25005793721171227,0.37292483458808356
0.6567763344797244,0.1982665721857483,0.9171718859155892,0.5583858517121429,0.26002643582268353,0.3797373512074104
0.666929115589314,0.19819624252509435,0.9184975480892651,0.559336127470264,0.27005133091290395,0.3865281543060783
0.6766142300446174,0.19815929865699886,0.9196906153427776,0.5604105038956693,0.28003938145045143,0.3932790600720626
0.6859059074169361,0.19813365047821743,0.9208137630108926,0.5615590957460738,0.2898861390396897,0.39995280060733573
0.6948458626315154,0.19810246050565317,0.9219127405423594,0.5627318735541876,0.2994761517304586,0.4064926956309401
