x-axis (g),y-axis (g),z-axis (g),x-axis (deg/s),y-axis (deg/s),z-axis (deg/s)
0.8490697068983251,0.899316673864976,0.8797292353124061,0.5953123976696372,0.28384490547317176,0.4898014953491673
0.8453229764250619,0.9027522696063504,0.859715023397618,0.6119991125951407,0.30461392360795475,0.48100344452097354
0.8414890710120648,0.9059546528668548,0.8399474300869476,0.6284532517452637,0.32499984828026146,0.4722801889750782
0.8374317151394424,0.9086101793575261,0.8206909173509933,0.644518752088254,0.34445405883275326,0.46365659347815424
0.833031060332114,0.9104361169686128,0.8022004379355802,0.6600577150705234,0.36246142381647767,0.45515638313965695
0.8281904550994957,0.9111920395040146,0.7847106956133213,0.6749583449399597,0.37855517673012284,0.446798648013131
0.8228412544370164,0.9106878710515015,0.7684248792249992,0.6891410410835747,0.39232921600891907,0.43859418043179466
0.8169454635246522,0.908788367644023,0.7535034796828323,0.7025620917776901,0.4034477902542482,0.43054205315175226
0.8104961856665015,0.9054141046906392,0.7400539405699575,0.715214679364078,0.41165264139104785,0.42262681734426166
0.8035160002739212,0.9005392841451103,0.7281219621329456,0.7271271841101854,0.4167677470455359,0.41481663992627
0.7960535205687764,0.8941868651585544,0.7176852574837803,0.7383590323231631,0.41870183250474136,0.4070626178895201
0.7881784670903401,0.8864216454593975,0.708650445735426,0.748994546589029,0.4174488191046137,0.3992994117086011
0.7799756424745583,0.8773419760397444,0.7008535704713927,0.7591354039742185,0.41308634923667403,0.39144723866713443
0.7715382103090854,0.8670707844949761,0.6940644750755548,0.7688923828779229,0.4057724893030881,0.38341516724262265
0.7629606737383743,0.8557465237242865,0.6879949773944277,0.7783770812932288,0.39574067225608306,0.3751055616187313
0.7543319261819211,0.8435145671741864,0.6823104956819078,0.7876942266002266,0.3832929115294748,0.3664194458374212
0.7457287143893075,0.8305194550744045,0.6766445148865713,0.7969350835133783,0.3687913071731136,0.357262493776069
0.7372098183890515,0.8168982730734256,0.6706150714376085,0.8061723197574066,0.3526478791256324,0.3475513066423314
0.7288112164099233,0.802775327928649,0.6638422932683153,0.8154565269561143,0.3353128047006779,0.3372196155946198
0.7205424657456064,0.7882581837499322,0.6559659694916139,0.8248144347078531,0.31726120660047125,0.32622404401796173
0.7123844909929523,0.7734350422944312,0.6466621425388802,0.8342487139532009,0.29897872934572634,0.3145490815784115
0.7042889262217512,0.7583733938294928,0.6356578090337645,0.84373915285122,0.28094624769062,0.302210959198769
0.6961791044813432,0.7431198297606025,0.6227429724946447,0.8532449114551075,0.2636241594532026,0.2892601684159919
0.6879527246244472,0.727700890759791,0.6077794949717559,0.8627075230479855,0.2474368147443868,0.27578243723525453
0.679486151487843,0.7121248192290754,0.5907064270113741,0.8720543084985408,0.23275771111788482,0.26189805388543824
0.6706402229646625,0.6963840867939969,0.5715417359673401,0.8812019004652287,0.21989612820914448,0.24775951551148015
0.6612673506113349,0.6804585707558335,0.5503805823343898,0.8900596293001493,0.20908587707665663,0.23354756613047173
0.6512196151714714,0.664319253798657,0.527390495222622,0.8985325932424755,0.20047679345861122,0.21946577232467376
0.640357481897004,0.6479323161567094,0.5028039574042296,0.9065243127127357,0.19412950961310146,0.20573386150781778
0.628558700094621,0.6312634781779475,0.47690901787578804,0.9139389435068749,0.19001389996232534,0.19258011201425504
0.6157269133790053,0.6142824348773055,0.4500386007849623,0.9206830889793255,0.1880114192754982,0.18023313330853974
0.601799496417445,0.5969672053090616,0.4225591741320669,0.9266673012052092,0.1879213499208384,0.1689134058606401
0.5867541529236584,0.5793082021315162,0.3948593849944585,0.9318073919930556,0.18947076046790007,0.15882496237300575
0.5706138581452297,0.5613118148185223,0.36733916948185363,0.9360256849888003,0.19232776638827986,0.15014758495594596
0.5534498044747994,0.5430032977008311,0.34039971778601874,0.9392523305071999,0.1961174893675847,0.143029867535692
0.5353821064674573,0.5244287647975463,0.314434532061336,0.9414267774657015,0.20043994809184612,0.13758345124270083
0.5165781354556087,0.5056561194243612,0.28982167251510627,0.9424994556259192,0.2048889914261708,0.13387868553464266
0.49724847742836065,0.48677478848873335,0.2669171591629154,0.9424336710401695,0.20907131301478693,0.13194190263503452
0.47764063413023083,0.4678941881237948,0.24604939522570227,0.9412076635197745,0.21262456973943367,0.13175442102382182
0.4580307100419246,0.44914091608183065,0.2275144119650268,0.9388167226215582,0.21523366714854278,0.13325331869094598
0.4387134412075682,0.43065474280243454,0.21157170890167135,0.9352752133896931,0.21664437158217326,0.13633394192742584
0.41999102050870984,0.4125835518401115,0.19844047874051343,0.9306183295944327,0.21667355667301466,0.14085404349167402
0.40216125314655743,0.39507745527313703,0.18829605973721186,0.924903374263121,0.2152155834429703,0.1466393775361968
0.38550563129912285,0.37828237462039865,0.18126654273135206,0.9182103675069457,0.21224453760323758,0.15349051976289063
0.3702779439990774,0.36233342696325366,0.17742956548615682,0.9106418012324287,0.20781229153484757,0.16119063155047464
0.35669403354113555,0.3473484847530601,0.1768094407403532,0.9023213990049052,0.20204260633933274,0.16951384759016289
0.34492327034562353,0.33342228304527205,0.17937487241740668,0.8933917952684838,0.19512172464234467,0.17823393893675737
0.3350822427667468,0.3206214283477094,0.1850376022439037,0.8840111179945304,0.1872861107445151,0.18713288818586218
0.3272310474889508,0.30898061962394274,0.19365238285795305,0.8743485379614666,0.17880815574268108,0.19600901140386093
0.32137242320712595,0.2985003269603785,0.20501868165029383,0.8645789305169566,0.16998076862636963,0.2046842729758919
0.3174538016032825,0.28914609147154535,0.2188844737742944,0.8548768753731639,0.1611018114810153,0.2130104650117507
0.3153721647335838,0.28084951705797034,0.23495237935545343,0.8454102899914957,0.15245930451189835,0.22087396242004365
0.31498140918216483,0.27351092738756744,0.2528882410580871,0.8363340459038189,0.14431822738036362,0.22819881794917043
0.3161017391612037,0.26700356693706834,0.2723320324533447,0.8277839491292012,0.13690958617975532,0.23494802768027923
0.3185304585010244,0.26117913969664364,0.29291075039055564,0.8198714712017253,0.13042221465730114,0.24112287536408913
0.3220534199935197,0.2558744087822533,0.3142526972850217,0.8126795935168137,0.12499755262280844,0.24676035166514304
0.32645633247246664,0.2509185287531826,0.33600232822335185,0.8062600741816236,0.12072741484456023,0.2519287390750337
0.3315351302304707,0.24614075203749797,0.35783465206156545,0.800632365189722,0.1176545511963518,0.25672155138211833
0.33710467969200236,0.2413781416218219,0.37946806406217204,0.7957843029099761,0.11577562222980572,0.2612501136554029
0.3430052325039266,0.23648293220937322,0.40067447530577927,0.7916745733583398,0.1150460881659027,0.2656351593934374
0.349106223879544,0.2313292079342174,0.4212857091844082,0.7882368243437382,0.11538644196294845,0.2699978997922493
0.3553072456865919,0.2258186019617873,0.44119536530090964,0.7853851696799314,0.1166892101075817,0.27445107955899495
0.3615362759998229,0.2198847671711353,0.46035570043911417,0.7830207172941067,0.11882619256912398,0.2790905678682725
0.3677454978924706,0.21349641347174694,0.478769524509858,0.7810386640746844,0.12165550427338725,0.2839880359521576
0.3739052660662983,0.20665875346721027,0.49647762110100646,0.7793354452275131,0.12502809829725245,0.2891852396027914
0.3799969574637091,0.19941324356684922,0.5135427285240676,0.7778154119042338,0.1287935773114141,0.2946903525833805
0.3860055515390032,0.1918355541736301,0.5300315988504988,0.7763965416798527,0.13280521647410487,0.3004766852262618
0.3919128131163612,0.18403175454568801,0.5459970249212646,0.77501476164294,0.13692421273886976,0.30648397424204604
0.39769188864392,0.17613276138230102,0.5614619256277517,0.7736265783577815,0.14102323215748638,0.3126222516022213
0.4033039764302148,0.16828718160621614,0.5764075541234762,0.7722098531947089,0.14498934449836262,0.31877810281400404
