x-axis (g),y-axis (g),z-axis (g),x-axis (deg/s),y-axis (deg/s),z-axis (deg/s)
0.16533919082914034,0.11124281924765109,0.05630219039301687,0.07309879572854258,0.5099518384530113,0.7180465610189829
0.19857921465642392,0.11419743586897584,0.0634118114593143,0.0665414399661113,0.4946731574504102,0.7079221653085059
0.23129745292802434,0.11754257240462614,0.07065532925735482,0.060422325409995384,0.47987788364921835,0.6979739684584628
0.2631281605424274,0.12183682867958258,0.0781515278364617,0.05523880008848502,0.46599439508376145,0.6883389734722376
0.2937444779589776,0.1275761925323225,0.08599196174185289,0.05142736566478008,0.4533893984833361,0.6791381622400059
0.3228753356877676,0.13517084321620054,0.09423185042061132,0.049339589613766,0.4423443827876125,0.6704697103062958
0.35031918365292863,0.14492926615782709,0.10288452167822781,0.04922517522514887,0.43303966884785317,0.662403871937246
0.37595335579096717,0.15705017685209702,0.11191989715527194,0.05122310553966364,0.4255472309679345,0.654979941401009
0.3997382218231263,0.17162207547665578,0.12126713296701164,0.05536100854135695,0.4198325213649919,0.648205486948276
0.4217157044896581,0.1886296540854152,0.13082115599641775,0.061562169377960205,0.41576461894976136,0.6420578369143599
0.44200221127475253,0.2079658080735788,0.1404525062180726,0.06965901441183292,0.41313325308757803,0.6364875970385402
0.46077649954701366,0.2294476958570618,0.15001963398619295,0.07941146151690882,0.41167069626547337,0.6314238140543434
0.4782634181558827,0.2528351568999999,0.15938262436096629,0.09052829543395899,0.4110762178144351,0.6267802859723146
0.49471480715260224,0.2778498302328482,0.16841723446656992,0.10268968583691876,0.41104075092670195,0.6224624604515099
0.510389060042407,0.30419348935605645,0.17702813245596,0.11556909808037423,0.4112696240812274,0.6183743588853756
0.525530941536057,0.33156438977092384,0.18516030935794187,0.12885311634177918,0.4115015993459062,0.6144250094539687
0.5403532033310032,0.3596707713978616,0.19280778491108114,0.14225806113387648,0.4115229825987387,0.6105339575119475
0.5550213595220498,0.3882410282191825,0.2000189298392683,0.155542690292653,0.41117615686650943,0.6066355339709043
0.5696426921750851,0.41703041367073224,0.20689796319799664,0.16851667953173521,0.4103624736964943,0.6026816886633444
0.5842601860378823,0.4458244616189681,0.21360243780219873,0.18104494734405943,0.4090399610014694,0.5986433235043981
0.5988516749299435,0.47443954724163134,0.2203367836283109,0.19304819096801987,0.40721672452883306,0.5945101787475064
0.6133340589813827,0.5027211776751064,0.2273422242108533,0.2045002179424871,0.4049412053574591,0.5902894263386683
0.6275720581823434,0.5305406863323668,0.2348836019637883,0.21542278520112565,0.40229059580107357,0.5860032016759836
0.641390635667991,0.5577910130689844,0.24323383458291783,0.22587869847828257,0.39935871484224866,0.5816853561565816
0.6545899786038483,0.58438219703651,0.25265686789440434,0.23596389087879827,0.39624451923964527,0.5773777374840192
0.6669617812917634,0.6102371064424439,0.26339008461202235,0.24579910828242052,0.3930422052676484,0.5731263046749338
0.6783055402479169,0.6352877977199507,0.2756271696914473,0.2555217012406996,0.3898335722252715,0.5689773634634897
0.6884436409193208,0.6594727536967303,0.2895024199800674,0.26527787899123595,0.3866830079204718,0.5649741697506565
0.6972341781460888,0.6827351120752583,0.3050774197858723,0.2752156401216022,0.3836351520434401,0.5611540987070092
0.7045806882033431,0.7050218743842207,0.3223308884408981,0.28547847165756357,0.3807150245474299,0.5575465199102337
0.7104382552250412,0.7262839899464543,0.34115234693588636,0.2961998146538093,0.37793019459777477,0.5541714589135572
0.7148157626100273,0.7464771434871893,0.36134005650814244,0.30749823532669396,0.37527442469842154,0.5510390667501097
0.7177743643099178,0.7655630389778881,0.3826034628540385,0.31947321698962394,0.3727321589943528,0.5481498642508507
0.7194225276974668,0.7835109631067533,0.4045701470671536,0.33220149577841135,0.3702832311981929,0.5454956801687203
0.7199082291829207,0.8002994239916624,0.42679705101702214,0.34573389528166687,0.3679072361440273,0.5430611627951971
0.7194090515382979,0.8159176877431225,0.4487855234101854,0.3600926624873201,0.3655871248245822,0.5408257152977313
0.7181210298514065,0.8303670703616669,0.46999953534724626,0.3752693598429737,0.3633117283318101,0.5387656861788878
0.7162471193026859,0.8436618790304629,0.4898862515477663,0.3912234159883688,0.36107707310006215,0.5368566384103137
0.7139861165249628,0.8558299303514857,0.5078980241678325,0.40788147251398105,0.3588865011119947,0.5350755238738022
0.71152276610885,0.8669126005107464,0.5235148061501257,0.42513767972187616,0.3567497398087243,0.5334026032919992
0.7090196375433264,0.876964382747126,0.5362659630401668,0.44285508718488226,0.3546811666099708,0.5318229749750718
0.706611180595196,0.8860519416647035,0.5457504955864961,0.46086824401813975,0.35269757574050065,0.5303276071239336
0.7044001748633573,0.8942526641342005,0.5516547664496944,0.47898707089988446,0.3508157783810266,0.5289138063371364
0.7024565976694952,0.9016527159188936,0.553766946435899,0.49700199497924646,0.3490503529464609,0.5275850971542531
0.7008187577384728,0.9083446250946358,0.551987550183748,0.514690255635627,0.34741181584210556,0.5263505313498182
0.699496392040866,0.9144244307085929,0.5463356082168805,0.5318232005514498,0.3459054121522986,0.5252234884286134
0.6984753084349776,0.9199884597515192,0.5369502114032629,0.5481743052666489,0.34453063967980957,0.5242200674318853
0.6977230826873544,0.925129827659795,0.5240873553491978,0.5635275728517778,0.34328152840107,0.52335720192041
0.6971952869488229,0.9299347956383751,0.508112197634422,0.5776859106061506,0.3421476101603013,0.5226506523627776
0.6968417364334544,0.9344791586628535,0.4894870134958449,0.5904790438245363,0.34111543855217064,0.5221130411918821
0.6966122876427218,0.9388248760067862,0.46875529120474524,0.6017705173870682,0.3401704629279074,0.5217520943222141
0.6964617984445554,0.9430171853387287,0.446522544714123,0.6114633572371603,0.33929902762915853,0.521569238675462
0.6963539594667092,0.9470824552057744,0.4234345377218076,0.619504016804118,0.33849025987109255,0.5215586789615114
0.6962638184830963,0.9510270228809231,0.400153710786144,0.625884317040228,0.33773762675742003,0.521707040313865
0.6961789354412797,0.954837230321623,0.3773346825337893,0.6306411996394438,0.33703998110816835,0.5219936189900413
0.6960992166446125,0.9584808079305372,0.35559975768320434,0.633854245528051,0.33640197261884214,0.522391234553034
0.6960355745634295,0.9619096646360838,0.33551541745234137,0.6356410569615162,0.3358337693932159,0.522867627567025
0.6960076385385381,0.9650640279248398,0.317570788642457,0.6361507516052635,0.33535010821926464,0.5233873008750916
0.6960407968660633,0.9678777471515797,0.3021590805212814,0.6355559593120478,0.33496876287001626,0.5239136638514955
0.6961628800962343,0.9702844396387076,0.28956293545708733,0.6340438344946612,0.3347085812753618,0.5244113110561772
0.6964007986307912,0.9722240365129232,0.27994455034807875,0.6318066865553661,0.3345872885928297,0.5248482521388557
0.6967774266477386,0.9736491902111073,0.27334128122761603,0.6290328763909613,0.334619279429244,0.5251979103317388
0.6973089825305636,0.9745309541723143,0.2696672346115319,0.6258986195654895,0.33481362607056536,0.5254407229583488
0.6980030981828139,0.9748631510753148,0.2687210718000887,0.6225612711578173,0.3351725101217349,0.5255652083377537
0.6988577015702051,0.9746649180179482,0.27019990867440297,0.6191545435442392,0.33569024431975114,0.5255684072720647
0.6998607645594034,0.9739810572487829,0.27371879485295686,0.6157859327755539,0.33635299352529674,0.5254556607589861
0.7009908973768779,0.9728800226719935,0.278834824732777,0.6125364150793101,0.3371392348873934,0.5252397444024918
0.702218706805009,0.9714496187985511,0.285074503104594,0.6094622427119912,0.3380209239663029,0.524939439107087
0.7035087814386982,0.9697907539828162,0.29196260486045794,0.6065984443137344,0.33896526364779883,0.5245776714233291
0.7048221264625278,0.968009839772104,0.29905048486117364,0.6039634493254205,0.33993691298936507,0.5241793996503251
