x-axis (g),y-axis (g),z-axis (g),x-axis (deg/s),y-axis (deg/s),z-axis (deg/s)
0.8455960143813769,0.9655395435859085,0.6341431712351496,0.6983976961553049,0.2919596557551394,0.3436143848736356
0.8448790826039014,0.9620306308471395,0.6397927290688221,0.7057105505117999,0.2911240635819021,0.34008732625713595
0.8441805952077245,0.9583801325262863,0.6453015509061353,0.7131223202503507,0.29025701864346737,0.3364462828746494
0.843452204438144,0.9544058423840689,0.6503838737465495,0.7207738569593424,0.2892898911838523,0.3324851281608435
0.8426408537337072,0.9499504910488326,0.6547621270894818,0.7287836449388626,0.28816008155154604,0.3280171564445505
0.8416855613891762,0.9448903934189663,0.6581716483406175,0.7372382220430028,0.2868139392641203,0.32288353538068487
0.8405152135549592,0.9391410875963085,0.6603658445003002,0.7461853804956459,0.2852089685592482,0.3169597345918972
0.8390478099041249,0.9326597037773965,0.6611220564375128,0.7556305670593008,0.28331527929530237,0.310159777957748
0.8371913772286604,0.925444086487375,0.6602480979788721,0.7655366187701377,0.28111630852180763,0.3024383042478742
0.8348465264926848,0.9175289582182884,0.657589160751437,0.7758266914805716,0.27860889156116325,0.293790543309719
0.8319104109455444,0.9089796334777651,0.653034546382529,0.7863899890271155,0.2758027970797118,0.2842504177142378
0.8282816730075674,0.8998839528755029,0.6465235457403238,0.7970897012684283,0.2727198563191282,0.27388705902993765
0.8238658624564191,0.8903431982408136,0.6380497490258151,0.8077724232734227,0.2693928132222453,0.26280008164528396
0.8185807744108508,0.8804627704156089,0.6276631422658081,0.8182782621790268,0.2658640029099206,0.2511139847425988
0.8123611896482066,0.8703433664091723,0.6154695116506745,0.8284508422936945,0.2621839359419903,0.2389720556138609
0.8051625909895709,0.8600732923200084,0.6016269123443759,0.8381464863440602,0.25840983109895654,0.22653012739311396
0.7969635614371589,0.8497224066612253,0.5863392310665795,0.8472419699246929,0.2546041062305378,0.21395050509037464
0.7877667231680566,0.8393380211713317,0.5698471478313194,0.8556404024952174,0.250832810500174,0.2013963201410619
0.7775982317773475,0.8289429088451564,0.5524170496561683,0.8632749653340529,0.2471639661964631,0.18902651074671417
0.7665059796635741,0.8185353967098458,0.5343286412553938,0.8701104183493752,0.24366578643007267,0.1769915585203419
0.7545567721989158,0.808091366605214,0.5158621160396188,0.8761424586057455,0.24040474669678533,0.1654300466282729
0.741832811200545,0.7975678608572094,0.4972857856765214,0.8813951613934213,0.23744351170382347,0.15446604543660947
0.7284278484092142,0.7869078979505018,0.4788450178480442,0.8859168504501487,0.23483875061203233,0.1442072824139533
0.7144433585352523,0.7760460494476723,0.4607532079766408,0.8897748219873601,0.23263890937432394,0.13474401633708838
0.6999850327480766,0.7649143136145361,0.4431853267949227,0.893049385587643,0.23088204304999374,0.1261485129978164
0.6851598183798007,0.7534478408262583,0.42627436173461625,0.8958276853254195,0.22959383885121107,0.1184750105669985
0.6700736401437788,0.741590115894398,0.4101107287556962,0.898197730968272,0.22878597792899197,0.11176006621627875
0.6548298438869921,0.7292972763536482,0.39474449514932697,0.9002430083440974,0.22845498738038392,0.10602318913802007
0.6395283165117848,0.7165413358536612,0.38019004379472077,0.9020379577711516,0.22858172195975773,0.10126768556988297
0.6242651640065446,0.703312180123628,0.36643264234986755,0.9036445182606727,0.22913158739576556,0.0974816652308156
0.609132779656017,0.6896183017384027,0.3534362688714688,0.9051098412355558,0.23005557550757827,0.09463918208362225
0.5942201096133654,0.6754863320469898,0.3411519945437514,0.9064651881462126,0.2312921283491367,0.0927015022720179
0.5796129233092459,0.6609595081527131,0.32952623473945597,0.9077259476585372,0.23276978842044813,0.09161850582756853
0.5653939192369077,0.6460952751484589,0.3185082461915991,0.9088926444392625,0.23441052943871754,0.09133023462233374
0.5516425380147487,0.630962265821991,0.30805636066637065,0.9099527655755051,0.2361336025815592,0.09176859645491417
0.5384344084220687,0.615636920251318,0.29814259094062706,0.9108832031700517,0.23785968185367254,0.09285922461881055
0.5258404117624323,0.6002000061661028,0.28875540806609507,0.9116531018800946,0.23951505422920982,0.094523475373132
0.5139254088216418,0.5847332791870391,0.279900654579626,0.9122269060203484,0.2410355795753739,0.09668052483666449
0.5027467257813467,0.5693164829229121,0.2716007124071868,0.9125674192720958,0.2423701449082828,0.09924950496350507
0.492352535670453,0.5540248363797273,0.26389217493980693,0.9126387173966874,0.24348335853943504,0.10215159868749102
0.48278029661467053,0.5389270950664462,0.2568223714677944,0.9124087868375024,0.24435727164216398,0.10531200017750711
0.4740554152351625,0.5240842079917754,0.2504451536904856,0.9118517960872699,0.24499197539240572,0.10866164006927544
0.46619029273765195,0.5095485310927659,0.2448163767730448,0.9109499390709151,0.24540499712009597,0.112138579351547
0.459183883906662,0.4953635040275768,0.2399894930922965,0.9096948181475343,0.24562950345196358,0.11568899002548487
0.4530218582761651,0.48156365666087314,0.23601162988440885,0.9080883571412263,0.24571140586928986,0.11926766523253211
0.44767740229549696,0.468174787979286,0.23292044908862455,0.906143251468044,0.24570554763703434,0.12283803450894053
0.443112646248303,0.45521415628128886,0.23074199675244011,0.9038829732209026,0.2456712240009831,0.12637169828538958
0.4392806452253494,0.44269053634155797,0.22948964899241014,0.9013413550529711,0.24566734389923206,0.1298475359330043
0.43612779462721557,0.43060403605363107,0.22916416010561494,0.8985617794715499,0.2457475763760587,0.13325047927531247
0.4335965218597674,0.4189456190612979,0.22975472361543484,0.8955960016338838,0.24595583517462896,0.13657007419881884
0.4316280704315782,0.4076963464648519,0.23124087512769134,0.8925026358588382,0.24632243920410926,0.13979897290957888
0.43016518261672454,0.3968264235305957,0.23359500156658558,0.8893453404993532,0.24686124525078654,0.1429315055409521
0.4291544928294952,0.3862942088573451,0.23678517761357662,0.8861907436939209,0.24756798486092196,0.1459624706138925
0.4285484650790422,0.37604540534361386,0.24077802828691727,0.8831061642289342,0.24841995393212893,0.14888625933121816
0.42830674228227494,0.3660126961803495,0.24554131646577695,0.8801571968394453,0.24937710683655676,0.1516963906765329
0.4283968197678553,0.3561161073146372,0.25104597462894784,0.877405248423823,0.2503845035853272,0.15438548632413115
0.4287940063038182,0.346264364280053,0.25726733936195717,0.8749051287463978,0.25137595602169727,0.15694566142200475
0.42948068944411677,0.33635746220407486,0.2641854032467545,0.8727028135926587,0.25227862489508,0.15936925532444968
0.43044497400649157,0.32629058247259607,0.27178396952765516,0.8708335071229786,0.25301824122445854,0.16164978159523025
0.4316788095264367,0.3159593708453833,0.28004867841487147,0.8693201305874046,0.2535245691215236,0.16378294494850318
0.4331757616147964,0.3052664465605414,0.288963967839141,0.8681723544230194,0.2537366984394085,0.1657675589589282
0.4349286109863199,0.2941288508075961,0.29850913309805266,0.8673862688244661,0.2536077577235161,0.1676062052271145
0.43692698089866067,0.2824859800511459,0.30865375511787774,0.8669447542054535,0.25310867230407175,0.16930550273357653
0.4391551978145326,0.27030740192913694,0.3193528701170626,0.8668185690706293,0.25223065788838256,0.17087590320420956
0.44159058073245466,0.25759983725097263,0.3305423460416683,0.8669681216881099,0.25098623301291484,0.17233098967312388
0.4442023316903508,0.24441252940956198,0.34213500241526795,0.8673458378737903,0.249408648010528,0.17368632405007614
0.44695116369259247,0.2308402289234326,0.35401804712203166,0.8678989853383471,0.2475497553071234,0.17495795683292406
0.4497897534851198,0.21702310867280625,0.36605239179358323,0.8685727708947092,0.24547647573430809,0.17616076906401085
0.45266404661053394,0.20314310168761737,0.37807433310148914,0.8693134955120732,0.24326613699974983,0.17730685475422642
0.4555153733484768,0.1894164173033219,0.3898999396501987,0.870071537841594,0.24100106230199633,0.17840416464808181
