x-axis (g),y-axis (g),z-axis (g),x-axis (deg/s),y-axis (deg/s),z-axis (deg/s)
0.6832720114877503,0.5925762345149446,0.6209167977067949,0.8036038261274245,0.29470930981831905,0.43170685495663935
0.6991336834184821,0.6128470156389844,0.6079407256929352,0.7943037941677077,0.3103497691187171,0.4451202535552672
0.714990700770579,0.6330072629674977,0.5950703209075284,0.7849735213568966,0.3259577585374185,0.45849952924324966
0.7308749051851503,0.6530364704939572,0.5823867913464067,0.7754824444228773,0.341544818340681,0.47187689274398986
0.7468004533686297,0.6729089057249293,0.5699693428508849,0.7657137991027697,0.3571111485748745,0.48527381824721855
0.7627566778925248,0.6925908396442746,0.5578976469787214,0.7555694999892353,0.37263980904836685,0.49869573928723354
0.7787036793806907,0.7120389294524749,0.5462541443864397,0.7449733464639695,0.38809269882347863,0.5121285783035251
0.7945710120641455,0.7311997731048319,0.5351258962455002,0.7338726180246383,0.40340863490491413,0.5255372963439665
0.8102595052315298,0.7500105560211144,0.5246057530697066,0.7222382240907853,0.4185036590459945,0.5388664357399634
0.8256459512798758,0.7684006271911725,0.5147926801404417,0.7100636452539392,0.4332735140215039,0.5520424410190402
0.8405901189190291,0.7862937790732455,0.505791153945621,0.6973629441211198,0.4475980626809323,0.5649774017742791
0.8549433436604175,0.8036109664945787,0.49770961815335607,0.6841681364151092,0.46134728650772233,0.5775737768559546
0.8685578248031591,0.8202731858128693,0.49065805547462754,0.6705262009519412,0.47438840238753643,0.5897296341911333
0.8812957269780716,0.836204246581804,0.48474478972979385,0.656495975922427,0.48659357949618226,0.6013439688471076
0.8930372434744597,0.8513332016430447,0.4800726784191437,0.6421451445173397,0.49784772163843893,0.6123217316492185
0.903686917663919,0.8655962538799811,0.4767348893176924,0.6275474612404818,0.5080558002750794,0.622578296163502
0.9131777200916397,0.8789380232416342,0.474810475321279,0.6127803165967453,0.5171492744050868,0.632043196554915
0.9214726192906649,0.891312129466869,0.4743599709546739,0.5979226867257583,0.5250912090687928,0.6406630674373145
0.9285636385240069,0.9026811171659199,0.4754212330386406,0.5830534694758756,0.5318797978865356,0.648403797200707
0.9344686329419905,0.9130158137461638,0.4780057385920474,0.568250171837216,0.5375501002588425,0.6552519606430304
0.9392262290611123,0.9222942612101831,0.4820955366492357,0.5535878870414906,0.542173914462012,0.6612156220910899
0.9428895226744454,0.9305003957108052,0.48764102861145464,0.5391384835623898,0.5458578180789007,0.6663245982527687
0.9455192201169552,0.9376226614549608,0.4945597250109566,0.5249699225177776,0.5487395115563585,0.6706302463612166
0.9471769260661362,0.9436527378010049,0.5027360957768149,0.5111456237528816,0.5509826940579532,0.6742048060136807
0.9479192306947682,0.9485845320422209,0.5120225965567055,0.49772381283290557,0.5527707784481487,0.6771402820406286
0.9477931384335793,0.9524135491731643,0.5222419154423019,0.4847567995662693,0.5542998100039926,0.6795468202132442
0.9468332235535077,0.9551366991105612,0.533190442561198,0.4722901615142508,0.5557709878954872,0.6815505056585772
0.9450607115843792,0.9567525474387648,0.5446429195409102,0.4603618310584232,0.5573831973162112,0.6832905111536098
0.9424844893482778,0.9572619639532414,0.5563581772479761,0.4490011097937964,0.5593259425547835,0.6849155416402903
0.9391038590349591,0.9566690796838042,0.5680858194044506,0.4382276571786654,0.5617730282103282,0.6865795617307386
0.9349126902802932,0.9549824320782344,0.579573658301534,0.4280505196005488,0.564877270047744,0.6884368509857929
0.9299045022227137,0.952216162313462,0.5905756592179837,0.4184672797434862,0.5687664334807377,0.6906365011546962
0.9240779341524389,0.9483911290203813,0.6008601053531519,0.4094634132335257,0.5735405029075027,0.693316542430284
0.9174420427573975,0.9435358178297846,0.6102176586653408,0.40101193937253987,0.5792702869305546,0.6965979533950998
0.9100208951297885,0.9376869530845199,0.6184689677570628,0.39307344526074006,0.5859972713206462,0.7005788632266695
0.9018570039310999,0.9308897525044364,0.6254714654960027,0.3855965481943894,0.5937345517107804,0.7053292875824353
0.8930132647929706,0.9231978024872435,0.6311250094183695,0.3785188408088204,0.6024686186593553,0.7108867460492966
0.8835731937017945,0.9146725659728534,0.6353760490888584,0.37176833828298567,0.6121617342490316,0.7172530863068574
0.8736394098141483,0.9053825619088375,0.6382200570156171,0.3652654185365397,0.6227546345658311,0.724392788237717
0.8633304528248075,0.895402272077686,0.6397020322831949,0.3589252163547501,0.6341693159911624,0.7322329429837585
0.852776150905359,0.8848108358089214,0.6399149758491255,0.35266040239590474,0.6463117118625039,0.7406650028265311
0.8421118551310623,0.8736905862410346,0.6389963388666302,0.3463842496235758,0.6590741334534194,0.7495482852563365
0.8314719224954987,0.8621254655613835,0.637122554485807,0.34001386430839237,0.6723374268519693,0.7587150975564166
0.8209828594317371,0.8501993349164159,0.634501872441158,0.3334734377063531,0.6859728752879409,0.767977236116205
0.8107565327664501,0.8379941724802039,0.6313658170265787,0.3266973591223078,0.6998439446674426,0.7771335167169191
0.8008838206028851,0.8255881360179843,0.6279596756027144,0.3196330225614772,0.713808019411109,0.7859779164160683
0.7914290201081581,0.8130534594370411,0.6245324900681152,0.31224315880634423,0.7277182991926702,0.7943078609417766
0.7824252626566052,0.8004541604894552,0.6213270623986741,0.30450753374542,0.7414260209311111,0.8019321780639271
0.7738711195947305,0.7878435614371517,0.6185704935930175,0.296423873211922,0.7547831341300196,0.8086782590940299
0.7657285230967076,0.7752616662549375,0.6164657511341773,0.2880079052578003,0.7676454948944998,0.8143980266655393
0.757922082544383,0.762732494325998,0.6151847033542611,0.2792924529589105,0.7798765616849929,0.818972393794499
0.7503398502470274,0.7502615363523151,0.6148629719126184,0.2703255639892719,0.7913514838441379,0.822314010979206
0.7428355795328382,0.7378335656564162,0.6155968401120664,0.26116772571554725,0.8019613836065574,0.8243682266907925
0.7352325175817919,0.7254110975641959,0.6174423211698611,0.2518882835571004,0.811617555522015,0.8251123222910127
0.7273287757239375,0.7129338304358828,0.6204163449220176,0.24256125153969238,0.820255254861282,0.8245532143794282
0.7189043101330362,0.7003194134973698,0.6244998735144263,0.23326077169233822,0.8278367272071944,0.8227239346605363
0.7097295144513321,0.687465859586458,0.6296426174196819,0.22405653643471987,0.8343531502294362,0.8196792889381723
0.6995753631784087,0.674255848624208,0.6357689042933795,0.2150095279676841,0.8398252165829815,0.8154911534419326
0.6882249447216908,0.6605630474006732,0.6427841663355858,0.2061684435396957,0.8443021804074856,0.8102438812679654
0.6754860854958732,0.6462604055771171,0.6505814674777889,0.1975671588517721,0.8478593111090019,0.8040302602787746
0.6612045979026198,0.6312301849543399,0.6590474981962406,0.1892235292119812,0.8505938353337078,0.7969483861987424
0.6452774993651196,0.615375253437882,0.6680675279412018,0.18113973769692868,0.8526195870846718,0.7890996950740785
0.6276653678013224,0.5986309468635233,0.6775289232821454,0.17330427368640805,0.8540607115339786,0.7805882465354917
0.6084028475357255,0.5809765956810233,0.687323008385862,0.16569547037874363,0.8550448657069025,0.7715211766300085
0.5876062282745963,0.562445656995526,0.6973452514114734,0.1582863577435331,0.855696416836156,0.762010063402039
0.5654770176101104,0.543133313511934,0.7074939872696454,0.15105041389160684,0.8561301488982881,0.7521727896285367
0.5423005392534174,0.5232004246458468,0.7176681093995052,0.1439676428625543,0.8564459470773746,0.7421353659762489
0.5184388305808482,0.5028728604199548,0.7277643517439297,0.13703029241297235,0.8567248420229012,0.73203311424256
0.49431748682796617,0.4824355250808496,0.7376749060519875,0.1302474736331221,0.8570266699636983,0.722010620842627
0.47040659184553507,0.46222078115149373,0.7472861499367144,0.12364797441658619,0.8573894550538403,0.7122199660031053
