x-axis (g),y-axis (g),z-axis (g),x-axis (deg/s),y-axis (deg/s),z-axis (deg/s)
0.6414368836430789,0.8530428594297136,0.5933929917045317,0.6245182606808231,0.6008475118785778,0.3241742609897904
0.643889568203265,0.8629424375051596,0.5882471602375169,0.6173726669407443,0.5991510750423551,0.32975754421842585
0.6463481357120779,0.8726905172282041,0.5830900659938401,0.6101994843738566,0.5973563298067948,0.33523456475229296
0.6488727297649772,0.8821630338389981,0.5778562574636497,0.6028908261534344,0.5953217595486502,0.3405068502378587
0.6515186627413974,0.891247929271751,0.5724860238236252,0.5953507890454298,0.592923407666906,0.34548627029207224
0.6543342530622418,0.8998488457283026,0.566930688500623,0.5874997146056885,0.5900647320950216,0.35009850648478097
0.657359371537887,0.9078877042277324,0.56115735808144,0.5792769124061423,0.5866842980680537,0.3542854378206542
0.6606246319807287,0.9153060166723899,0.555152882799828,0.5706418827952676,0.5827608478922655,0.35800631896860485
0.6641510870951725,0.9220648903646544,0.5489268191228215,0.5615741943077759,0.578315550480478,0.36123774373024614
0.667950243519622,0.9281437941987178,0.5425132274129653,0.5520722586547825,0.5734114872797296,0.363972496497283
0.6720241953518624,0.9335382548164707,0.5359711881635937,0.5421512988566053,0.5681506479028463,0.36621748804839843
0.6763656939905202,0.9382567299831792,0.5293839779834394,0.53184082256575,0.5626688698884812,0.367991040198476
0.6809580193549192,0.9423169593253777,0.5228569095019859,0.5211818959995727,0.5571292536414874,0.3693198213305978
0.6857745854354906,0.9457421165046276,0.5165139049658563,0.5102244703261016,0.5517146157457355,0.37023574024696565
0.6907782912649602,0.9485570819742876,0.5104929381328684,0.49902495003599484,0.5466195188481869,0.370773081071929
0.6959207055843684,0.9507851243602443,0.5049405394388925,0.48764412090509585,0.5420423467630462,0.3709661120048878
0.7011412391951103,0.9524452259127041,0.5000056116292951,0.4761454825563182,0.5381777948029924,0.370847332490487
0.7063665046533663,0.9535502194436397,0.4958328438030395,0.46459396525708396,0.5352100337290281,0.37044644493444884
0.7115100827988587,0.9541058274245355,0.49255603848523605,0.4530549586101221,0.5333066959843887,0.3697900567706445
0.7164729071139544,0.9541106152523527,0.49029167719890204,0.44159354526463,0.5326137372091067,0.3689020442217796
0.7211444409112102,0.953556796382694,0.48913304435227206,0.43027381748861193,0.5332511529861412,0.367804446986991
0.725404762695137,0.952431762437445,0.48914520744381473,0.4191581580351008,0.5353094849340666,0.36651871810893355
0.7291275979981112,0.9507201606568765,0.49036111492975903,0.40830638695749377,0.5388470323377166,0.3650671282145353
0.732184249425189,0.9484063069344824,0.4927790237228658,0.3977747091743946,0.5438876927906021,0.36347411894935977
0.7344482891534034,0.9454767064724661,0.49636140891485797,0.3876144389859845,0.5504193824390965,0.3617674155994155
0.7358007981492439,0.9419224557944924,0.5010354420115722,0.3778705223083188,0.5583930262255898,0.35997874086819037
0.7361358713677292,0.9377413182106216,0.5066950539322304,0.36857992010802737,0.5677221530543385,0.3581440165847937
0.7353660640605846,0.9329392976093746,0.5132045283587249,0.3597699529090398,0.5782831721472838,0.3563029930342672
0.733427434907054,0.9275315796586062,0.5204035025904465,0.3514567327178036,0.5899164379720607,0.35449830160795637
0.7302838486060145,0.9215427616292563,0.5281131893857867,0.34364382282640754,0.6024282264513237,0.3527739807137404
0.7259302332075509,0.9150063483498152,0.5361435764927192,0.3363212665252129,0.6155937410724194,0.35117357305152863
0.7203945431367408,0.9079635484485256,0.5443013124598821,0.3294651128884332,0.6291612425583221,0.34973793098143907
0.7137382531773364,0.9004614583903428,0.5523979493332611,0.32303754276901975,0.6428573507133416,0.34850289336234586
0.7060552959735459,0.8925507685252217,0.5602581861977105,0.3169876632258359,0.6563935047967292,0.3474970106136965
0.6974694494454152,0.8842831625379863,0.567727743268247,0.3112529968118368,0.6694734939826903,0.3467394946560244
0.6881302742272138,0.8757086069856229,0.574680495319867,0.30576164691444824,0.6818018881887247,0.3462385576133273
0.6782077884176206,0.8668727393237883,0.5810245065353642,0.30043507521418,0.6930931186948126,0.34599027932665394
0.6678861418680165,0.8578145599727631,0.5867066371191432,0.2951913856877212,0.7030808846962944,0.3459781110364015
0.657356610288083,0.8485646163414647,0.591715435868077,0.2899489743553701,0.7115275030615349,0.3461730835925572
0.6468102672944108,0.8391438349292398,0.5960820925959335,0.28463037743828606,0.7182327800253825,0.3465347459136963
0.6364307083067824,0.8295631131310455,0.5998792996665651,0.27916613424480635,0.7230419698566906,0.3470128157166639
0.6263871935306758,0.8198237275221125,0.6032179619693279,0.27349847560524737,0.7258523993981578,0.34754948212087794
0.6168285491783742,0.8099185533715149,0.6062417975671767,0.26758465386378777,0.7266183794142025,0.3480822606049536
0.6078781188412831,0.7998340248660822,0.6091199838687456,0.2613997454333163,0.725354092328663,0.3485472666079647
0.5996299938286952,0.7895527015658697,0.6120381220598554,0.2549387802694322,0.7221342374888737,0.34888274613240694
0.5921466764247177,0.7790562489069888,0.6151879097759522,0.24821808248193594,0.717092323970249,0.34903268104935004
0.5854582480348517,0.768328594174338,0.6187560213273532,0.24127574065402924,0.7104166200834594,0.34895027425046415
0.579563030070753,0.7573589890989639,0.6229127877916292,0.2341711632767716,0.702343890211135,0.3486011160175122
0.5744296442205628,0.7461447002544437,0.6278013368614694,0.2269837122126345,0.6931511651922654,0.347965838561277
0.5700003053831114,0.7346930618059638,0.6335278853544113,0.21981044377103268,0.6831458944604824,0.347042081072203
0.566195119498858,0.7230226634484649,0.6401538674595508,0.21276302167738348,0.672654909916963,0.34584561309060735
0.5629171135775849,0.7111635091734528,0.6476905226721064,0.20596389818475724,0.6620126881361394,0.34441049950845704
0.5600576991980121,0.6991560672090031,0.6560964554441789,0.19954188836564915,0.6515494260620577,0.3427882355678999
0.5575022651666295,0.6870492330622083,0.6652785143399937,0.1936272879908451,0.6415794451639555,0.3410458337220131
0.5551356099144954,0.6748973386608418,0.6750961272591645,0.1883467071891559,0.6323904115438773,0.3392629043164862
0.5528469580072713,0.662756451636911,0.6853689817982007,0.18381781006289782,0.6242338080776523,0.33752783604277886
0.5505343546503741,0.6506803087439335,0.695887672206411,0.18014416420913323,0.617317024124574,0.3359332464618817
0.5481082926207634,0.6387163044188978,0.7064266676821727,0.1774104130080106,0.6117973443562358,0.3345709333111711
0.5454944918262251,0.6269019980641948,0.7167587156194897,0.17567798664307357,0.6077780268116121,0.33352660895777547
0.5426358161835942,0.6152626017849397,0.7266696042555257,0.1749815639149961,0.6053065670542954,0.33287473822126795
0.5394933691712945,0.6038098570777725,0.7359720976022573,0.1753264846370572,0.6043751551354323,0.3326738190626797
0.5360468523802676,0.592542601655242,0.7445178434316001,0.1766872903777634,0.6049232485972765,0.33296244227874777
0.5322942962403353,0.5814491690586553,0.7522061573717236,0.1790075383365199,0.6068421102315327,0.33375643758976703
0.5282512765888759,0.5705115632069981,0.7589888078653967,0.18220098838821946,0.6099810945799428,0.3350473584049906
0.523949715382323,0.559711123528138,0.7648702603741816,0.1861542066235093,0.6141554118863172,0.3368024773480686
0.5194363322181409,0.5490351661713387,0.7699032632538229,0.19073056070796873,0.6191550512300988,0.3389663630633383
0.514770772078232,0.5384838805226803,0.7741801363135471,0.19577550480982855,0.6247545044647695,0.3414639921644492
0.51002339304295,0.528076608372462,0.7778206074540832,0.20112296765482593,0.6307228982486873,0.344205227003942
0.505272666473389,0.5178565660714441,0.7809574747691825,0.2066025707542698,0.6368341127225063,0.34709037062424164
0.500602132237937,0.5078931142586183,0.7837216891273894,0.2120473207037436,0.6428764435543227,0.3500164062203587
