x-axis (g),y-axis (g),z-axis (g),x-axis (deg/s),y-axis (deg/s),z-axis (deg/s)
0.7768040995208211,0.8819505589346796,0.5040733710914984,0.3482460507031292,0.6928180995740053,0.36674947453952356
0.7693451609084254,0.8726115815292661,0.5118966730782665,0.33963208124189287,0.7032968515494902,0.3660527319741665
0.7617838063212021,0.863232895290893,0.519699459966748,0.33108140183348506,0.7136303265371343,0.3653927577741633
0.7539674652382379,0.8536913691474745,0.527511919617276,0.3226059409896446,0.7236356274529196,0.36481241022425914
0.7457669046799177,0.8438802300617033,0.5353590319637717,0.3142168701976661,0.7331396994580738,0.36434996698331656
0.7370859361396871,0.833714276547865,0.5432580255904023,0.3059247890798072,0.741985086616419,0.36403724148744715
0.7278681625362575,0.8231329249812789,0.5512166259701203,0.2977398621657297,0.7500350853802307,0.36389816748511755
0.7181003786443237,0.8121011040782152,0.5592321252710943,0.28967198557598123,0.7571781520873764,0.3639479202613848
0.7078125402064894,0.8006081941169066,0.5672912374777465,0.281731038518251,0.7633314523668336,0.36419260156826827
0.6970745026479205,0.7886653530373422,0.5753706499290983,0.27392724328204193,0.7684434658364359,0.36462947312083094
0.6859899736475473,0.7763016705365179,0.5834381463505292,0.2662716244696529,0.7724955794481876,0.36524768414700787
0.6746883064472659,0.7635596388202215,0.5914541576156371,0.25877652883202956,0.7755026186009905,0.3660294050984137
0.6633148732288029,0.7504904258182395,0.5993735932499338,0.251456145288242,0.7775122792328663,0.3669512549335484
0.6520207990777824,0.7371493894412805,0.6071478159886242,0.24432695293666942,0.7786034397320395,0.36798589528545816
0.6409528129642598,0.7235921895650872,0.6147266396327591,0.23740802397087002,0.7788833519064672,0.36910366225407765
0.6302438939596416,0.7098717497820621,0.6220602529880472,0.23072111782272847,0.7784837380559019,0.37027411536985344
0.6200052728417056,0.6960362061991087,0.6291009962188099,0.22429052084965992,0.7775558578753597,0.3714674022385081
0.6103202066537776,0.6821278677168053,0.6358049377115541,0.21814260993905268,0.7762646544129146,0.3726553643199905
0.6012397913620344,0.6681831116607363,0.6421332177234212,0.21230514556592592,0.7747821408037802,0.37381234129844076
0.592780928191082,0.654233058278587,0.6480531389135197,0.2068063270708883,0.7732802455126977,0.374915665192496
0.5849264223792728,0.6403048125321549,0.653538993438154,0.2016736674091802,0.7719233884266152,0.3759458672506428
0.5776270756673194,0.6264230338959483,0.6585726224271166,0.19693276400365328,0.770861107497546,0.37688664752868156
0.5708055394055034,0.6126115938192329,0.6631437075452798,0.1926060548872376,0.7702210895817543,0.3777246761834838
0.564361624658328,0.5988951030139632,0.6672497973095268,0.18871165403268456,0.7701029739144769,0.3784493051194429
0.5581787180137883,0.5853001318603327,0.670896074089682,0.18526235636609628,0.7705732877165798,0.3790522679187073
0.552130924627803,0.5718560008620398,0.6740948721867482,0.182264891873404,0.771661837998724,0.37952743533621375
0.54609055049308,0.5585950776334234,0.6768649635475082,0.1797194904792013,0.77335982130749,0.3798706745153412
0.5399355412434331,0.5455525759267377,0.6792306355743954,0.17761979654648266,0.7756198261870678,0.3800798349115358
0.5335565127163631,0.5327659050197575,0.6812205947163849,0.17595314581209046,0.7783577964064279,0.3801548558455869
0.526863037411082,0.5202736598903963,0.6828667393078856,0.17470119043882723,0.7814569037881139,0.38009796317740935
0.5197888899625996,0.508114371022328,0.6842028544297651,0.17384083178400747,0.7847731568179712,0.37991389933623054
0.5122960033174588,0.4963251460840639,0.685263289242914,0.17334539750890268,0.7881424551245545,0.379610115025016
0.5043769450804765,0.48494033441028495,0.6860816821365111,0.17318598159916684,0.7913887003861053,0.3791968447547569
0.49605578990400984,0.4739903309600519,0.686689800115889,0.17333285418703925,0.7943325002035161,0.37868699333700134
0.48738733763904835,0.46350061216506755,0.6871165553488787,0.1737568437521681,0.7967999599225244,0.37809577670911626
0.47845470626626,0.4534910655059782,0.6873872532615539,0.17443059777727274,0.7986310524751071,0.3774400868045909
0.46936541043613317,0.4439756417623228,0.6875231130218362,0.17532963910461774,0.7996870889365044,0.37673758416529074
0.46024611691615513,0.43496232750679886,0.6875410831595167,0.17643315333225126,0.7998568801087735,0.37600556011027897
0.4512363427863374,0.4264534088071083,0.6874539534446947,0.17772446628108804,0.7990612762354781,0.37525964826516184
0.4424814258630561,0.4184459775903168,0.6872707404765154,0.1791911980250618,0.7972558894030407,0.3745124985293395
0.4341251446378653,0.4109326209199217,0.6869973006304793,0.18082510898447687,0.7944319309035066,0.3737725506869449
0.426302392631351,0.4039022305514413,0.6866371022714023,0.1826216816749895,0.7906152226292601,0.3730430560791596
0.4191323162032866,0.39734087448794225,0.6861920717598535,0.1845795063597062,0.7858635566157507,0.3723214913979405
0.4127123037819658,0.39123268190110555,0.6856634169458113,0.1866995576858456,0.7802626708196807,0.37159948756902195
0.40711316827961835,0.3855607052222662,0.6850523293822457,0.18898446035324123,0.7739211752683933,0.3708633594220389
0.4023757952368737,0.38030773579064764,0.6843604736412365,0.19143784343609058,0.7669647971502815,0.3700952707412106
0.39850944100052726,0.3754570597577368,0.6835901893183571,0.19406387432252384,0.7595303160068464,0.36927500836357374
0.3954917636603514,0.37099314715822357,0.6827443580620911,0.19686704431739602,0.7517595340500051,0.36838227362796877
0.39327056145960054,0.3669022681912458,0.6818259227346486,0.19985224962507578,0.7437935776966239,0.36739933598145735
0.39176708654061354,0.36317302683333463,0.6808370860613276,0.20302517544949197,0.7357677625694462,0.3663138385751833
0.39088070385420287,0.3597967939629808,0.6797782584308638,0.20639294994292035,0.7278071842005053,0.36512150559618656
0.3904945829701265,0.3567680121399781,0.6786468647756716,0.20996499208863217,0.7200231289185959,0.36382848131768514
0.3904820503899705,0.35408433460454564,0.6774361542466536,0.21375393728967282,0.7125103409372427,0.3624530353063545
0.39071319621735456,0.3517465547634237,0.6761341793074195,0.21777649077879802,0.705345137264158,0.3610263987723672
0.39106132418490946,0.34975828207503246,0.6747231190051728,0.22205403632778156,0.6985843337551763,0.35959255319215283
0.39140885842561074,0.3481253278957753,0.6731791115822672,0.22661282016230544,0.6922649326247465,0.3582068710711853
0.3916523721382384,0.3468547815711788,0.671472732716615,0.2314835407975459,0.6864045206873198,0.35693360460620016
0.3917064784103373,0.34595378262525883,0.6695702077223994,0.23670020685565699,0.6810023334173028,0.35584232348249767
0.3915064159619865,0.34542802766169234,0.6674353812169552,0.2422981773818994,0.6760409465930719,0.3550035089206035
0.39100926490644144,0.3452800874879136,0.6650323903787329,0.2483113713537067,0.6714885590273643,0.354483607287483
0.3901938311490978,0.3455076467922344,0.6623289042906019,0.25476872135233913,0.667301822050598,0.35433992299444467
0.38905933368893486,0.3461018104812989,0.6592997099421344,0.2616900447564845,0.6634291513495646,0.3546157778174103
0.3876231081279527,0.34704564237425034,0.655930354289687,0.26908160606561626,0.6598144243019186,0.35533637488645725
0.3859175946710787,0.34831310868048593,0.6522205006505121,0.27693173588470965,0.6564009235699627,0.35650577589548255
0.3839869045446791,0.3498685870503737,0.6481866352222818,0.28520694422241893,0.6531353403797687,0.35810532864433675
0.38188325288391306,0.3516670702669013,0.6438637724327406,0.2938490062255292,0.6499716055473043,0.360093772007863
0.379663510298882,0.3536551424165575,0.6393058599609035,0.30277349627576405,0.646874281094278,0.3624091042939488
0.377386065158874,0.3557727377915339,0.6345846755425081,0.3118701927261069,0.6438212287169045,0.36497214027371155
0.3751081136237478,0.357955614561457,0.6297871333908786,0.32100566541117376,0.6408052812210266,0.3676915169470475
0.37288341705395706,0.36013839437858164,0.6250110687327426,0.3300281916105856,0.6378346853236707,0.37046975561918305
