x-axis (g),y-axis (g),z-axis (g),x-axis (deg/s),y-axis (deg/s),z-axis (deg/s)
0.47572425255626594,0.26167685608132746,0.7176009435829919,0.9189404812941916,0.11394550787160956,0.22380548099856076
0.4889042972573652,0.267733897434369,0.715234595574968,0.9197810150376109,0.10727036960357564,0.2202147906710367
0.50214279765166,0.2739401405904185,0.7126624779809585,0.920563898094845,0.10113333149066636,0.21662791587344601
0.5154932525332433,0.2805784498274019,0.7095012341504975,0.9211987864286164,0.09620493985825469,0.2131047949202785
0.5289812711438008,0.28790254510880353,0.7053996528445956,0.9216027246920372,0.09308297031872485,0.2097091212818753
0.542597009009797,0.2961289137170612,0.7000504423366075,0.9216998937867119,0.09226190023127,0.2065103054178787
0.556292059514958,0.30543215629799403,0.6931986351712639,0.9214206001914703,0.09411037716114246,0.20358468919603617
0.5699811540205199,0.3159435916600844,0.6846467037752653,0.9206997745274322,0.09885773039845272,0.20101566283612052
0.5835484613107086,0.32775269667880974,0.674256674868125,0.9194752563686469,0.10658980425927597,0.19889247445423439
0.5968577567195182,0.34091077212261867,0.6619496774357472,0.9176861251496318,0.11725366330117172,0.19730768467747978
0.6097653136603124,0.35543611321601815,0.6477034416625483,0.915271298938908,0.13067009579785716,0.1963533838299245
0.6221340988259695,0.3713199284343211,0.6315482885856271,0.9121685706650644,0.14655236926123755,0.19611643850942195
0.6338477492770146,0.3885322871231107,0.6135621218008884,0.908314192029051,0.16452939590321003,0.19667315268743407
0.6448228757705602,0.4070274755884363,0.5938648663345474,0.9036430550857442,0.18417135160149425,0.19808380477971937
0.6550184536276253,0.42674828727636677,0.5726127103262753,0.8980894654286079,0.20501584617489213,0.20038755045758025
0.664441396797141,0.4476289477831256,0.5499924066668741,0.8915884527378808,0.2265929387169643,0.20359816044613419
0.673147819399532,0.4695965610484895,0.526215796629265,0.8840775263878703,0.24844759340839065,0.20770099714942689
0.6812399246622962,0.49257114133356406,0.5015146354730264,0.8754987568032997,0.27015853841135434,0.21265153169078121
0.6888588778307795,0.5164644508735489,0.47613573730187336,0.8658010472410409,0.2913528831545291,0.2183755749388964
0.696174377312856,0.5411779832043303,0.4503364159758857,0.854942454865248,0.3117162314793404,0.22477125519761393
0.7033719063813665,0.5666005089843248,0.42438018030047303,0.8428924231509477,0.33099837029821993,0.23171263487574234
0.7106388071707085,0.5926056310370283,0.3985326420574855,0.8296337983384389,0.3490148944190391,0.23905473128261392
0.7181503627552649,0.6190497791320974,0.3730576098263038,0.8151645193350506,0.3656453356331415,0.24663960351062217
0.7260570068731239,0.6457710175607131,0.34821336401579933,0.7994988915919095,0.38082849411808983,0.2543030962099842
0.7344736196008586,0.6725889480530918,0.32424913294245344,0.7826683795805097,0.3945557261086878,0.26188179662833333
0.7434716339339481,0.699305877651994,0.3014018105931128,0.7647218781195433,0.4068629328569039,0.26921976466810266
0.7530744004622001,0.7257092977302105,0.27989296960526544,0.7457254485869159,0.41782193526595934,0.27617463448075963
0.7632559644417102,0.7515755985156576,0.25992622540040256,0.7257615307220439,0.42753182138201945,0.2826227547391855
0.7739431294729068,0.776674834405317,0.24168499867042134,0.7049276631496346,0.43611073551609003,0.288463125265749
0.7850204386710462,0.8007762682250694,0.22533070480275944,0.6833347650101782,0.44368845222452225,0.2936199906778738
0.7963375157385243,0.8236543639727719,0.21100137323407112,0.6611050464951538,0.45039995736961036,0.29804405714780524
0.8077180857076027,0.8450948708839735,0.19881067121211898,0.6383696272862643,0.45638015058981757,0.3017123967240679
0.8189699418424127,0.8649006470329763,0.1888472796555463,0.6152659488263147,0.4617596939741201,0.3046271867525103
0.8298951377383736,0.8828969051913013,0.1811745482699775,0.5919350692235633,0.4666619626313443,0.3068134936598484
0.8402997525377832,0.8989356217656853,0.1758303466087091,0.5685189288454817,0.4712010035869548,0.3083163471556623
0.8500026885361884,0.9128989238817188,0.1728270298812831,0.5451576708478241,0.47548037752116457,0.30919736192912944
0.8588430979848038,0.9247013515821361,0.17215145388073605,0.5219870945847043,0.47959273971332317,0.3095311509531238
0.866686182848754,0.9342909730734958,0.17376500145817333,0.4991363115526688,0.4836200083843214,0.30940174162350137
0.8734272523116337,0.9416494031665346,0.17760362078312944,0.4767256635937496,0.4876339671265378,0.30889915892699477
0.8789940455042695,0.9467908322554399,0.18357791894649883,0.454864951717489,0.4916971509613055,0.3081162854195287
0.8833474228441476,0.9497602112504175,0.19157339799792333,0.43365201117355073,0.49586387166435597,0.30714605300844183
0.8864805945573839,0.9506307551761368,0.2014509585094602,0.4131716543467758,0.5001812474154594,0.3060789728387267
0.8884170899067841,0.9495009255874649,0.21304782266047667,0.39349498776282804,0.5046901154990521,0.3050009722617909
0.8892076797144793,0.946491032801777,0.22617903991142552,0.37467909329478144,0.5094257260483083,0.3039914854851206
0.8889264551536595,0.9417395683927322,0.24063973022409973,0.3567670471691182,0.5144181408629158,0.30312173861177827
0.8876662462800361,0.9353993429090559,0.25620819093128316,0.3397882345726757,0.519692294599589,0.3024531798176053
0.8855335433488358,0.9276334703665032,0.2726499442137011,0.3237589039040296,0.5252677154249236,0.30203602883999475
0.8826430704116571,0.9186112163889412,0.2897227352036699,0.30868289459183085,0.5311579463907881,0.30190795257993946
0.8791121594778222,0.9085037164856542,0.30718241037806854,0.29455246758452724,0.5373697537442588,0.3020929101182492
0.8750550869834459,0.8974795785162558,0.32478951805642114,0.2813491695783311,0.5439022493004528,0.302600244950552
0.8705775612350458,0.8857004101352722,0.34231638452078555,0.269044671789397,0.5507460853448518,0.3034241290089432
0.8657715852371516,0.8733163563444273,0.35955433815677473,0.25760154181913447,0.5578828967238237,0.3045434770816824
0.8607109563438723,0.860461789733653,0.37632068777059974,0.24697393213362945,0.565285161069289,0.3059224479226578
0.855447693049875,0.8472513593900965,0.3924650170831032,0.2371081989711478,0.5729166214057834,0.3075116277960051
0.8500096898906173,0.8337766644446243,0.4078743415800345,0.22794349807230455,0.5807333650925655,0.30924995362372015
0.8443998846310279,0.8201038640834107,0.4224766912082077,0.21941243450741768,0.588685581599217,0.31106737863690676
0.8385971707831116,0.806272556557285,0.4362427357791101,0.21144186844675622,0.5967199347588402,0.3128882178464373
0.8325591997418587,0.7922962452306246,0.4491851600434584,0.20395399223553404,0.6047823918210605,0.31463503983359925
0.8262270918292086,0.7781646523426023,0.4613556202969496,0.1968677923010557,0.6128212633312276,0.3162329026213324
0.8195319207969699,0.7638480369559835,0.47283926925953124,0.1901009890301515,0.6207901375615091,0.3176136725974168
0.8124026634584061,0.7493035235377663,0.4837470129971578,0.18357250732218952,0.628650353857315,0.31872012431075686
0.804775131096757,0.7344832585916441,0.49420585196761463,0.17720547080696628,0.636372661962802,0.3195095021393675
0.7966012412506575,0.719343997850776,0.5043478442426539,0.17093063709655493,0.6439377665555458,0.3199562372174376
0.7878578677981299,0.7038575049123638,0.5142983967353205,0.16469010604981146,0.6513355597586686,0.32005355695929455
0.7785544434108979,0.6880209381543895,0.5241647226547808,0.15844104660487976,0.6585629943249782,0.3198137992710128
0.7687384975257433,0.6718662440221194,0.5340253831393754,0.15215911113894312,0.6656207338829331,0.3192673448789929
0.758498405326706,0.6554674899037658,0.543921842283444,0.14584115170405387,0.6725089139807043,0.3184602014083031
0.7479628013645574,0.6389450851335947,0.5538528950907555,0.13950683215929063,0.6792225322487557,0.31745040100712557
0.7372963685439616,0.6224659745023627,0.5637726700441971,0.13319875514906598,0.6857471274958207,0.31630349608445907
0.7266920325326789,0.6062391555161246,0.5735926619329174,0.1269808010343112,0.6920554753039254,0.3150875404847077
