x-axis (g),y-axis (g),z-axis (g),x-axis (deg/s),y-axis (deg/s),z-axis (deg/s)
0.9736241781673797,0.6432156553980795,0.6335567836180633,0.4159295262466109,0.5986501044170122,0.4439633477552825
0.9662208359248826,0.6411274731511526,0.6266306691885039,0.418239425044303,0.6041057475828521,0.44466016082425713
0.9588301465955194,0.639083354150132,0.6196642232113475,0.42063495554539915,0.6096267645151351,0.4453127327558134
0.9514552182227606,0.6371462020731484,0.6126196272149957,0.4233008159681017,0.6153687887003666,0.44580602286515747
0.9441064756931654,0.6353738696744285,0.6054758480875793,0.42640746807934743,0.6214713138512599,0.4460309266128305
0.9367996363839247,0.633816901434411,0.5982375552369349,0.43009923899530106,0.6280502734266181,0.4458867270043453
0.9295523667417173,0.6325168220933082,0.5909414073198506,0.4344838226246607,0.6351925861824298,0.4452830307006455
0.9223799023377859,0.6315050005179328,0.5836591108262528,0.43962370500731957,0.6429528012476938,0.44414132924687666
0.9152900266382551,0.6308020577100609,0.576497042674424,0.4455298988718722,0.6513517980012773,0.44239633383896093
0.9082778829479995,0.6304177370474604,0.5695926128616344,0.4521582324702886,0.6603773448231977,0.4399972154969929
0.9013211321201023,0.6303511197338654,0.5631078747195909,0.4594083067942984,0.669986209299894,0.4369088459800446
0.8943759622514311,0.6305910521822673,0.5572211349887003,0.4671251199689734,0.6801074473923928,0.43311308456993003
0.8873744065233122,0.6311166553796536,0.5521174537851281,0.4751032600855861,0.6906464810439051,0.4286100991908256
0.8802233362395765,0.6318978075319949,0.5479789504967522,0.4830934866683642,0.7014895978707689,0.42341965453143054
0.8728053757229668,0.6328955268633681,0.5449757541350371,0.4908114527878866,0.712508563854926,0.4175822515825937
0.8649818440359021,0.6340622263290545,0.5432582750292047,0.49794826003047526,0.7235651185255596,0.4111599677735853
0.8565976767265753,0.6353418603797292,0.5429512558378868,0.5041824829810002,0.7345152091117562,0.4042368285464467
0.8474881305030473,0.6366700297674978,0.5441498143210344,0.5091932459229281,0.7452129032332949,0.3969185417737721
0.8374869358813378,0.6379741480785498,0.5469174489176112,0.5126738816745212,0.7555139884472072,0.3893314460424132
0.826435447118249,0.6391737984634906,0.5512857684763705,0.5143456529817637,0.76527931389543,0.38162056087102253
0.8141922529347064,0.6401814174764647,0.5572555511967965,0.5139709752137557,0.7743779504660137,0.37394667826813516
0.8006426611925573,0.640903433215684,0.5647986489616063,0.5113655516548196,0.7826902410678792,0.36648249637788977
0.7857074588247237,0.6412419570886674,0.5738602371478938,0.5064088268138955,0.7901107850664095,0.3594078622761883
0.7693503753650304,0.6410970843865172,0.5843609634079335,0.49905218604160856,0.796551356700061,0.35290425696230543
0.7515837423004668,0.6403698020947521,0.5961986607364845,0.48932438710519577,0.8019437043759625,0.3471487160933712
0.7324719368062731,0.6389654381482852,0.6092494431157898,0.4773338043956797,0.8062421249373242,0.34230743045059164
0.7121323209102844,0.6367975208835606,0.6233681748331737,0.46326719881922024,0.8094256628317962,0.33852930681998994
0.6907335279628559,0.633791857484659,0.6383884743139014,0.4473848918260736,0.8114997557895384,0.33593979035725335
0.6684910986994047,0.6298905923331786,0.6541225581095427,0.4300124120557634,0.8124971411874737,0.33463525227406277
0.6456606200343444,0.6250559760609173,0.6703613320064162,0.4115288857260214,0.8124778530748278,0.33467823177431655
0.6225286620910981,0.6192735679550458,0.6868751808841738,0.3923526425368981,0.8115281783051291,0.3360937896811507
0.5994019346920975,0.6125546103105972,0.7034158904701908,0.3729246916190147,0.8097584980571381,0.338867185202015
0.5765951866818476,0.6049373531199268,0.7197200533189914,0.3536908714198592,0.8073000126671207,0.3429430295897414
0.5544184447012559,0.596487168445687,0.7355141761402544,0.33508357994112886,0.8043004260512376,0.3482260043632593
0.53316422883535,0.587295371031326,0.7505215301213736,0.3175040375263607,0.8009187433489537,0.35458316077500357
0.5130953892368303,0.5774767485124971,0.7644705888318597,0.30130601827576126,0.7973194043239703,0.361847744892966
0.49443418048151666,0.5671658933179885,0.7771047008576528,0.2867819082903344,0.7936660291696861,0.3698244223940183
0.47735313074221963,0.5565125110928987,0.788192467913646,0.2741518148178949,0.7901150880432233,0.3782957120662727
0.461968173963496,0.5456759499809573,0.7975381632004315,0.26355627022814754,0.7868098183199629,0.3870293798787416
0.4483343993335749,0.5348192455109652,0.8049914445528313,0.2550528624379638,0.7838747037768029,0.3957864987031597
0.4364446387145148,0.5241030032776854,0.8104556022730494,0.24861689492395717,0.7814107991838869,0.4043298443637706
0.4262309653913021,0.5136794445551934,0.8138936358050133,0.24414595126051525,0.7794921351943441,0.4124322782075206
0.41756902338145724,0.50368691929257,0.8153315732833961,0.24146802656654376,0.7781633761501501,0.41988476091752786
0.41028495313324514,0.4942451496699024,0.8148586239754592,0.2403527042658265,0.7774388322489091,0.42650365240595894
0.4041645348032546,0.48545141033958417,0.8126239710744422,0.2405247107599194,0.7773028523697221,0.4321369783187047
0.39896404282735787,0.47737778459051894,0.8088302529100049,0.2416790788194289,0.7777115494566098,0.43666938435037267
0.39442220351353996,0.47006956534783767,0.8037240242700248,0.2434970948797054,0.7785957409673698,0.4400255539494759
0.3902725786561409,0.46354480230842227,0.7975837160417423,0.24566219495756803,0.7798649261678986,0.4421719311916601
0.38625566926852617,0.4577949368940875,0.7907058023981929,0.24787500516994715,0.7814120729585512,0.4431166660998783
0.38213004913495485,0.45278641900594385,0.7833900251308898,0.24986679093907171,0.7831189517245377,0.4429077814290721
0.37768190009871405,0.4484631660506317,0.7759246036385008,0.25141067841010245,0.784861733959672,0.44162964438639296
0.37273242877612894,0.44474970588254675,0.7685723706704051,0.25233013694473133,0.7865165699571622,0.4393979100685709
0.36714279308419273,0.4415548400011214,0.7615587175089543,0.2525043577635521,0.7879648727857281,0.43635318151682384
0.3608163482274339,0.43877566901040477,0.7550621121354084,0.2518703262761702,0.7890980643766555,0.4326537001358994
0.35369822365678777,0.43630183548423607,0.7492077787771841,0.2504215598091199,0.7898215822804934,0.4284674358539296
0.3457724499599787,0.4340198560392015,0.7440649094642211,0.24820366323397688,0.7900580000237364,0.4239639851829062
0.3370570504412019,0.4318174307601251,0.7396475329789628,0.24530703610641633,0.7897491765485719,0.41930670413735777
0.32759767811814827,0.4295876309246097,0.7359189108051787,0.2418572382303966,0.7888574165595249,0.41464549932006567
0.3174604974400452,0.4272328730386111,0.7327990811033646,0.23800367582296048,0.787365688557402,0.4101106727960771
0.3067250660460883,0.4246685876337026,0.7301749479279571,0.23390739548777378,0.7852770052783877,0.40580816412662735
0.29547795444723185,0.42182648561730324,0.7279121302851126,0.229728854621915,0.7826131165681667,0.4018164568759525
0.2838077457807407,0.418657315107198,0.7258676585564524,0.22561656144989506,0.7794126924763978,0.3981853192716334
0.2718018864266747,0.41513299068743537,0.7239025455879874,0.2216974344180983,0.7757291810413881,0.3949364333962273
0.25954562242177126,0.41124796880622466,0.7218932736590894,0.21806961229259986,0.7716285094900358,0.39206584001979355
0.2471229760798082,0.4070197419406524,0.7197413289469439,0.21479825266433197,0.7671867608148933,0.38954799449536737
0.23461941987280457,0.4024883344736397,0.717380078534927,0.2119145959271479,0.762487904443987,0.38734110230765617
0.22212562464398816,0.3977147086975387,0.7147785116124251,0.20941826224338794,0.7576215976263091,0.38539329157386787
0.20974143444145177,0.3927780326094763,0.711941639784652,0.207282418601656,0.7526810134587655,0.3836490955549323
0.19757908837825755,0.3877718231977688,0.708907648646076,0.20546113842476993,0.7477606040050715,0.3820556724902603
0.18576470379708682,0.38279905860065183,0.7057421863390382,0.20389801925271026,0.7429536845559788,0.38056819297767275
