x-axis (g),y-axis (g),z-axis (g),x-axis (deg/s),y-axis (deg/s),z-axis (deg/s)
0.8544652666562234,0.8496368642814246,0.48637919433398763,0.3546069740932696,0.6871966975776032,0.434256128617244
0.8520297191356555,0.837133438184283,0.4962341770793772,0.3465854318040429,0.7016081338542905,0.4322817180471343
0.8493476292684901,0.8246310998186224,0.5060262807587019,0.3387062824824227,0.7160566547444628,0.4303025177329882
0.846066522670363,0.8120768360022944,0.5157422914439541,0.33107707119717106,0.7306104010436785,0.4283054131468126
0.8418737663656287,0.7994314456140837,0.5253678033941784,0.32379310548857543,0.7453180403325446,0.4262811204364221
0.8365121108181914,0.7866738404085686,0.5348870849127714,0.3169314816837097,0.7601974351130627,0.4242254916262564
0.8297906097665214,0.7738032817603993,0.5442833531397587,0.3105462897150098,0.7752269009140025,0.4221401736780495
0.8215905214331414,0.7608394782643413,0.5535393532113823,0.30466539350000293,0.7903397802655457,0.4200325812204094
0.8118662263789445,0.7478206693872282,0.5626381154767345,0.2992890375352227,0.8054227620938218,0.41791522795438024
0.8006415879465604,0.7347999966749457,0.5715637586713418,0.2943903697376239,0.8203180605198451,0.41580453523274985
0.7880024965960283,0.7218406006656352,0.5803022155074113,0.2899178124758955,0.8348292607517523,0.4137192890003369
0.7740865570775253,0.7090099685301795,0.5888417771882726,0.28579907212358924,0.8487303667639954,0.4116789430606631
0.7590709876846488,0.6963740903773211,0.5971733813143408,0.2819464626152324,0.8617773639203514,0.4097019665294232
0.743159806184037,0.6839919625456078,0.6052905997623419,0.27826313676297354,0.8737214514066673,0.4078044090548186
0.7265712898877417,0.6719109102238615,0.6131893158960326,0.27464977318139433,0.8843230099199373,0.40599881444860564
0.709526537554936,0.6601630991388074,0.6208671109929931,0.27101125611313726,0.8933653496736905,0.40429355902679104
0.6922397525411276,0.6487634788323806,0.6283224058876716,0.267262907334211,0.9006673280956007,0.40269263305110964
0.674910635341256,0.6377092611875131,0.6355534241661467,0.26333587899897803,0.9060940278574598,0.4011958296016374
0.6577190435193064,0.6269809000691263,0.6425570571612685,0.2591813880469722,0.9095648339319856,0.39979926113345465
0.6408218685853626,0.6165444126826725,0.6493277184456908,0.25477356040793064,0.9110584315371273,0.3984960941617713
0.6243519082680851,0.6063547799231955,0.6558562769053411,0.25011075038321007,0.9106144526200355,0.3972773791245575
0.608418388649025,0.5963600884182066,0.6621291534849533,0.24521530112326106,0.9083317142055423,0.39613285548046695
0.5931087177133245,0.5865060351176188,0.668127658170131,0.2401318103222693,0.9043632049221246,0.3950516295823621
0.5784910285994755,0.5767404072034621,0.673827631591993,0.2349240558865613,0.898908174318308,0.3940226513916356
0.5646170913635009,0.5670171740878664,0.6791994406638097,0.22967081478730794,0.8922018521432509,0.3930349512742285
0.5515252274182123,0.5572998802510793,0.6842083606545901,0.22446087067026935,0.8845034619225208,0.3920776351841003
0.5392429401757098,0.5475641016492724,0.6888153577325249,0.21938754897063464,0.8760832871172283,0.39113967093278795
0.5277890675266862,0.5377988170920646,0.6929782668157161,0.2145431401143631,0.8672095934766787,0.3902095260971233
0.5171753559772518,0.5280066413915888,0.6966533399932318,0.2100135707928609,0.8581362052508623,0.38927473662896106
0.507407443363445,0.5182029612607973,0.6997971212100728,0.20587366037063048,0.849091476206813,0.388321492887689
0.49848530995728035,0.5084141005536528,0.7023685837275504,0.20218325557345285,0.8402692926103402,0.38733432646110333
0.49040331168472995,0.49867471231523175,0.7043314485283241,0.19898447431555435,0.8318226013052629,0.3862959678889805
0.4831499417008532,0.48902464663074474,0.7056565849255332,0.1963002126534593,0.8238597812610705,0.38518742443385595
0.4767074775728268,0.479505572632881,0.7063243799416747,0.1941339822236384,0.8164439830616785,0.38398830128276074
0.471051662666927,0.47015763935877475,0.7063269515341226,0.19247105473002316,0.8095953606588426,0.3826773623152294
0.4661515455187753,0.4610164443888173,0.7056700736205809,0.1912808011462294,0.8032959266153562,0.3812333011171351
0.4619695646881105,0.4521105439148794,0.7043746793444602,0.19052003240010493,0.797496588847169,0.37963567213239574
0.4584619242585576,0.443459686924745,0.7024778143168071,0.19013708117020262,0.7921257850742108,0.37786591786997054
0.4555792622801411,0.4350738942745375,0.7000329246734557,0.19007631601159952,0.7870990303196148,0.37590842210058856
0.45326757617840235,0.42695343569898125,0.6971093863199822,0.1902827531161492,0.7823286397564925,0.37375152108316495
0.45146933961452745,0.41908968941568164,0.693791211812084,0.1907064298360915,0.7777328878381028,0.37138841408880935
0.450124727225688,0.41146680464987057,0.6901749094154361,0.19130622810422337,0.7732439154800576,0.36881792896632404
0.4491728581968405,0.40406403117162354,0.6863665137967149,0.1920528835851147,0.7688137971835544,0.36604511570756265
0.4485529761054921,0.3968585349237134,0.6824778576111745,0.1929309843837317,0.7644183231531618,0.36308165813708954
0.4482054988115121,0.38982848715026935,0.6786222054251024,0.1939398462494591,0.7600582283868618,0.3599461082997287
0.44807289507329046,0.38295619724380414,0.6749094228618238,0.1950932428249725,0.7557577995685703,0.3566639576819575
0.44810037018988763,0.3762310570262838,0.6714409011241241,0.19641806199497888,0.7515609976763299,0.35326756272087667
0.4482363674021058,0.3696520758008531,0.6683044964708502,0.19795204478687498,0.747525434803279,0.3497959387862709
0.44843291166663124,0.3632298100553677,0.6655697721909473,0.19974083384278996,0.7437147229564449,0.3462944277108056
0.44864583534874414,0.3569875274848749,0.6632838437821502,0.20183460749931273,0.7401898566448246,0.34281423074448036
0.4488349302082398,0.35096148999044446,0.6614681235975378,0.20428459795466994,0.7370003878926136,0.33941178407750794
0.4489640669554346,0.3452002922135525,0.6601162371603172,0.20713978515800882,0.7341761927492528,0.3361479408521409
0.4490013140196811,0.3397632485015325,0.659193338699554,0.21044402196481976,0.7317206068875376,0.3330869150101414
0.44891907332342784,0.33471787935879227,0.6586369885300972,0.2142337837948418,0.7296056232198247,0.33029494122737046
0.4486942356328162,0.33013660571234926,0.6583596714424882,0.21853665346921108,0.7277697000073885,0.32783861369024286
0.4483083443434536,0.3260928129411412,0.6582529366080871,0.22337055763855393,0.7261185318296147,0.3257828856425697
0.4477477467968293,0.32265649380504674,0.6581930305735321,0.22874367570457022,0.7245289006850725,0.32418874125277813
0.44700370799021544,0.31988971742773104,0.6580477821857553,0.23465485681209278,0.722855467026926,0.32311058977546464
0.4460724632822424,0.31784219773367883,0.6576843895549189,0.24109431657170086,0.7209401003032183,0.3225934761510633
0.4449551936124836,0.3165472468488026,0.6569776632015255,0.24804435239214653,0.7186231069121105,0.32267024779476405
0.4436579169325867,0.31601839495567163,0.655818205563933,0.25547982158669597,0.7157555118872954,0.3233588591196925
0.44219130028738973,0.3162469365009965,0.654119964028592,0.26336817273311286,0.7122114090007736,0.324660027574218
0.440570405306096,0.31720062277563554,0.651826590451391,0.2716689062265614,0.707899328791029,0.32655547197376866
0.43881438312074017,0.3188236629744241,0.6489160805739836,0.2803324573595783,0.7027715966002511,0.3290069607143988
0.43694613123848197,0.32103812132543597,0.6454032545730856,0.2892986321290658,0.6968307676351143,0.3319563705027746
0.43499191445972946,0.32374670957631047,0.6413397740250262,0.29849486527188274,0.6901324301084983,0.3353269039995397
0.4329809361607104,0.32683687640229575,0.6368115649542756,0.3078346915030957,0.6827839489977904,0.33902553830700877
0.43094482856044536,0.330185994117237,0.6319337204365534,0.3172169030569562,0.6749390618588625,0.3429466795342721
0.4289170158299913,0.3336673458863644,0.6268431735836777,0.3265258891738983,0.6667886070238067,0.3469768887681504
0.4269318976412097,0.33715653211824637,0.6216896426465862,0.3356336001297059,0.6585480303040483,0.3510004314626848
