x-axis (g),y-axis (g),z-axis (g),x-axis (deg/s),y-axis (deg/s),z-axis (deg/s)
0.2809092667527185,0.13210207323397075,0.7467232335987465,0.8506424288032203,0.1887915364163163,0.3823647907233916
0.2835854278886798,0.1384514723452008,0.7475037394387357,0.8544308937523037,0.19267189581479455,0.38779616127842054
0.28653556364964733,0.14489051315321913,0.7484383105211995,0.8582055971267929,0.1966506435918171,0.39329844821184207
0.2901615976366973,0.15161749561990803,0.7496749914811083,0.8619529796813603,0.20082204511875104,0.3989443475154748
0.2948232904679966,0.1588110273880304,0.7513376798884452,0.865658211655484,0.20526054417960657,0.404789451098628
0.30081948293389155,0.16662313621259012,0.753514193202683,0.8693039524553755,0.21001598300705443,0.41086759231386893
0.30837395367514087,0.1751746876448437,0.7562472480724562,0.8728692924987241,0.21511146823499963,0.417188523985614
0.3176264765850274,0.18455308200399204,0.7595290608977812,0.8763290005699512,0.22054403474216666,0.4237381064195519
0.32862926138629117,0.19481204670858823,0.7632999211056605,0.87965317992544,0.22628798290790758,0.43048093536761606
0.3413485858895424,0.20597322378887176,0.7674507194341909,0.8828074039046234,0.23230050701123844,0.4373651072195994
0.3556711088104412,0.21802918302164534,0.7718290708500576,0.885753358784116,0.23852901925670447,0.4443286238880497
0.37141410652244494,0.23094746733787583,0.7762483865118452,0.8884499717416681,0.2449194243959769,0.4513067999420935
0.38833871452341245,0.24467529235136987,0.7804990430367565,0.8908549501130288,0.25142452533253634,0.458239959407886
0.4061651743656791,0.25914456583664414,0.7843606816959467,0.8929266103164792,0.2580117434202533,0.46508070200170265
0.42458908169524995,0.27427695384746503,0.7876146467592682,0.8946258364465705,0.2646694137592188,0.47180007461718415
0.4432976881573868,0.2899887861582941,0.7900556342051189,0.8959179842989038,0.2714110546749407,0.4783920945510599
0.46198541383310127,0.3061956547363622,0.7915017558314745,0.8967745397268677,0.27827719610507845,0.48487622325970015
0.48036786161254674,0.32281660765575376,0.7918024112201091,0.897174352152961,0.2853345654127191,0.49129756813054704
0.49819377575933194,0.33977787319138336,0.790843580291117,0.8971042941705473,0.29267265193277,0.49772477878530413
0.5152545416318223,0.35701606409540454,0.7885503811594315,0.8965592439723465,0.3003978849407042,0.5042457883435237
0.5313909730253544,0.3744808125876976,0.7848869618209475,0.8955413447042472,0.30862584761104334,0.5109617151110631
0.5464972720990945,0.39213677703729016,0.7798539927662921,0.894058558476651,0.31747209914807606,0.5179793751178413
0.5605221715268094,0.4099649477598143,0.7734841876408002,0.8921225967765207,0.32704227982100276,0.5254029527193403
0.5734673788151169,0.42796316835852005,0.7658363916140503,0.8897463675155632,0.33742222446995546,0.5333254303682429
0.5853835395267714,0.4461457866689863,0.756988837833181,0.8869411266035572,0.3486688084995517,0.5418203882875053
0.5963640207881238,0.4645423604176641,0.7470321812454908,0.8837135545040361,0.36080219930076224,0.5509347518881945
0.6065368899930426,0.4831953700513428,0.7360628801385302,0.8800629929107477,0.3738000911865346,0.5606829938334706
0.6160555261703259,0.5021569354309138,0.7241774161259912,0.8759790723371844,0.38759437120838797,0.5710431952697075
0.6250883519563665,0.521484592392065,0.7114677325381434,0.8714399386067393,0.40207050601573047,0.5819552450750065
0.6338082101676858,0.5412362554661038,0.6980181402403178,0.8664112471284935,0.41706976642223814,0.5933213160467887
0.642381927300612,0.561464568325177,0.68390380032326,0.8608460419340674,0.4323942270334662,0.6050086120543285
0.650960603164653,0.5822109164194178,0.6691907560919723,0.8546855761796444,0.4478143034992104,0.6168542393007165
0.6596711377909092,0.6034994388211111,0.6539373624734786,0.8478610671362011,0.46307842951874345,0.6286719261638661
0.6686094512319976,0.6253314206512447,0.6381968578540393,0.8402963165846543,0.47792433868003065,0.6402602066416696
0.6778357680346492,0.6476804667801571,0.6220207478166188,0.8319110715638227,0.4920913104841326,0.6514115977968733
0.6873722273828209,0.6704888466570575,0.6054626262567865,0.8226249543378993,0.5053326719919747,0.6619222457610059
0.6972029460853238,0.6936653564271603,0.5885820483637973,0.8123617569025752,0.5174278211436628,0.6716014901125801
0.707276511232994,0.717084968112927,0.5714480909201334,0.8010538757118398,0.5281930574909808,0.6802808034185587
0.7175107213693646,0.7405904298578265,0.5541422849232323,0.7886466566631705,0.5374905708930704,0.687821600442431
0.7277992401600747,0.7639958524283073,0.5367606782583524,0.7751024276303199,0.5452350459206353,0.6941214775149883
0.7380196866580403,0.7870921744634333,0.5194148750204254,0.7604040139446298,0.551397483671282,0.6991185330413426
0.7480425733260194,0.8096542536034907,0.5022319949573737,0.7445575585619395,0.5560060149953322,0.7027935301346101
0.7577404280380533,0.8314491951248127,0.4853535927397957,0.7275945003729993,0.5591436688920034,0.7051697860287535
0.7669964083402643,0.8522454167439902,0.4689336638440528,0.7095725985834446,0.5609432543440196,0.7063108036141784
0.775711741247063,0.8718218695064659,0.4531359340644721,0.6905759262342291,0.5615796994160164,0.7063157910783012
0.7838114017892255,0.8899767996069313,0.43813067678184303,0.6707137905230854,0.5612603544137195,0.7053133389652086
0.7912475758864519,0.9065354507595497,0.4240913218388298,0.6501185713644312,0.5602138938569113,0.7034536328992865
0.7980006305466826,0.9213561733248433,0.4111911103539562,0.6289425032736786,0.5586785348568027,0.7008996681823303
0.8040775248618506,0.9343345220734387,0.3996000118578189,0.6073534605960595,0.5568903204114451,0.6978179938309922
0.8095078226023634,0.9454050816602103,0.3894820572895078,0.5855298440802928,0.5550721923745794,0.6943695440491353
0.8143376921101102,0.9545409455498343,0.38099315973306197,0.5636547094132822,0.5534245020531633,0.6907011119862334
0.8186224806650646,0.9617509745680637,0.37427940256763076,0.541909326411795,0.5521174825704271,0.6869379832456819
0.8224186076882315,0.9670751573249656,0.36947568182772694,0.5204664105962878,0.5512860462751965,0.6831781764453165
0.8257756153609441,0.9705785674987891,0.3667045067808416,0.49948332451657806,0.551027085724958,0.6794886388328816
0.8287292321306988,0.9723445443577297,0.3660747008135694,0.47909560002950063,0.551399263328198,0.6759036221805615
0.8312962361161839,0.9724677976870799,0.36767971354209755,0.45941117823207056,0.5524250885909724,0.672425325292803
0.8334717515634278,0.9710481457331919,0.37159526259753717,0.4405057926937108,0.5540949184802734,0.6690267430744298
0.8352293811489785,0.9681855300476119,0.37787607488427283,0.42241992478193563,0.5563723891910235,0.6656565175091727
0.8365242880938816,0.9639768162860975,0.38655159361871155,0.4051577281085792,0.5592007070001065,0.6622454524244001
0.8372990210178978,0.9585146944478281,0.39762065598598917,0.38868824477463015,0.5625091983142947,0.6587142403151889
0.8374915538372274,0.9518887520922216,0.4110453186816324,0.37294911449161433,0.5662195462552707,0.6549818633647537
0.8370447288161827,0.9441885321024731,0.42674420167625854,0.35785280865456504,0.5702512201047052,0.6509740780993685
0.8359160788238087,0.9355081292190986,0.4445859161388578,0.34329521072014674,0.5745257268864045,0.6466313778612136
0.8340868960431206,0.9259516554363849,0.4643833184017378,0.3291661242195547,0.5789694693642211,0.6419158513186007
0.8315694310280107,0.9156387411734787,0.48588946328704335,0.3153610398165006,0.5835151665944067,0.6368164181874262
0.8284112574149333,0.9047091607056245,0.5087961914762362,0.30179325883728403,0.5881019646277986,0.6313520226814662
0.8246961172021069,0.8933256934958138,0.5327362531774698,0.2884052833751432,0.5926745180885996,0.6255724964103222
0.8205409453627,0.8816744649419486,0.5572897253098295,0.2751782754486958,0.5971814411304818,0.6195569591773015
0.816089219910552,0.8699622461018951,0.5819952112038533,0.2621383915503948,0.6015735941527922,0.613409800500796
0.8115012399411019,0.8584105150287195,0.6063659215244428,0.24935894027015282,0.6058026802041739,0.6072544674202426
