x-axis (g),y-axis (g),z-axis (g),x-axis (deg/s),y-axis (deg/s),z-axis (deg/s)
0.544440026727651,0.29353420371077127,0.6793203177236252,0.8591498869123135,0.25595722307818525,0.19827672561703608
0.5489251726441707,0.30057071758338927,0.6762947945787847,0.8611635951659423,0.2546550774530871,0.19609343579270974
0.5534013458764274,0.30771120440067606,0.6732289289608943,0.8631014245881999,0.25347671476992656,0.19394315878601862
0.5578758039583551,0.31515846898288535,0.6700545578807023,0.8648651386956259,0.2525357162060865,0.1918706283024198
0.5623507860194396,0.3230923275145743,0.6667124225277091,0.8663653281257242,0.2519273880733657,0.1899182734277396
0.5668233938497775,0.33166190030905424,0.6631543018048204,0.8675242510506963,0.25172403156485823,0.18812630152372925
0.5712864035911135,0.34098067722581665,0.6593440726364546,0.8682777835809651,0.2519724999938296,0.18653292039634256
0.5757299150161532,0.35112438549460656,0.655257719543633,0.8685764611079047,0.25269419177478214,0.18517459352372384
0.5801436426131465,0.36213147012950664,0.6508823902536276,0.8683856518901572,0.2538873826836303,0.1840862369453598
0.5845195727905153,0.37400581711174374,0.6462146553341471,0.8676849531290038,0.2555315723205413,0.18330128976807641
0.588854664159579,0.38672122148805727,0.6412581748397554,0.8664669346953382,0.25759333108211707,0.18285161808833697
0.5931532582253218,0.4002270321479421,0.6360210020775213,0.8647353759179066,0.2600330031233934,0.1827672405411587
0.5974288962690325,0.4144543915328025,0.6305127636390503,0.8625031474614265,0.26281155816335605,0.18307588929671004
0.6017053005912436,0.4293225256616699,0.6247419468852166,0.8597898855860299,0.2658968932884729,0.18380244061813733
0.6060163667541196,0.4447446173787378,0.6187135032238623,0.8566195929617479,0.26926896069638345,0.18496826255261287
0.6104051176212945,0.46063290099063353,0.6124269406678317,0.8530182818841648,0.2729232281100753,0.18659053345822194
0.6149216781986063,0.47690273603626504,0.6058750356596929,0.8490117551378087,0.2768721503867058,0.18868158430470897
0.6196204309752978,0.4934755390386044,0.599043245568938,0.8446235992772055,0.28114452590132416,0.19124831120083768
0.6245565943955275,0.5102805637346859,0.5919098531403754,0.839873446416197,0.285782810920685,0.19429169407022323
0.6297825242854231,0.5272556140509024,0.5844468257844222,0.8347755446400584,0.29083865147773663,0.1978064447311361
0.635344064523273,0.5443468445553835,0.576621328815809,0.8293376640836465,0.2963670495386303,0.20178079472178917
0.6412772672790144,0.5615078478926505,0.5683977948785002,0.8235603551980016,0.302419696252509,0.2061964216943627
0.6476057663642697,0.578698248202043,0.5597404235094524,0.8174365670482903,0.3090380717154367,0.2110285043115502
0.654339024177591,0.5958820164752061,0.5506159660673103,0.8109516258018798,0.3162469244735755,0.216245890044837
0.6614715902987712,0.6130257026431803,0.5409966423567715,0.8040835660980281,0.32404870602766483,0.2218113582897538
0.668983416430083,0.6300967453138371,0.5308630358128306,0.7968038001905333,0.3324194511841988,0.22768196249008862
0.6768411772084023,0.6470619792174609,0.5202068230576726,0.7890781014017824,0.34130647306330436,0.23380943882518734
0.6850004582859807,0.6638864179555358,0.509033209478487,0.7808678696603768,0.3506280933614371,0.24014067453794677
0.6934085998035255,0.6805323501662934,0.4973629632838814,0.7721316381732487,0.36027546704514263,0.24661823514362882
0.7020079310359129,0.6969587541488871,0.4852339641416978,0.7628267722844244,0.3701163993642749,0.2531809555826067
0.7107391044770482,0.7131210114273203,0.4727022068046729,0.7529113050534815,0.3800009045296258,0.2597646050422067
0.719544236451203,0.7289708844434755,0.4598422230807092,0.7423458497294196,0.3897681304977822,0.2663026380813312
0.7283695856340843,0.7444567170836048,0.44674690546409274,0.7310955275646197,0.399254181460904,0.2727270455069641
0.7371675476603293,0.7595238176129837,0.43352673164329336,0.7191318504495405,0.40830031428809044,0.27896931706775396
0.7458978086041295,0.7741149896799931,0.42030840059046104,0.7064345014182665,0.41676096956529346,0.2849615245217643
0.7545275766810524,0.7881711858615034,0.4072328984699593,0.6929929615851337,0.4245111211968538,0.29063752819242783
0.7630308935367841,0.8016322672427277,0.394453017418431,0.6788079386516953,0.4314524871701462,0.29593430298910106
0.7713871073661744,0.8144378595219806,0.38213035424540437,0.6638925587554679,0.43751823221132735,0.3007933712861874
0.7795786636048522,0.8265282993934571,0.37043182158985777,0.6482732891276818,0.44267590322172856,0.305162320277914
0.7875884295411362,0.8378456634796336,0.3595257134116451,0.6319905630033145,0.4469284621583994,0.3089963707317743
0.7953968123932411,0.8483348656507357,0.34957738190421705,0.6150990800688676,0.45031340962923605,0.31225995281109764
0.8029789528726229,0.8579447977959489,0.3407446052012633,0.5976677555171488,0.45290011731108015,0.3149282333332091
0.8103022760491355,0.8666294753796159,0.33317275465651186,0.5797792891274665,0.45478560038289945,0.31698852818731027
0.8173246579642126,0.8743491344412413,0.32698990560922114,0.5615293238605037,0.45608905547697126,0.31844152460115277
0.8239934209976211,0.8810712135351845,0.3223020734899506,0.5430251628458147,0.45694555941745574,0.3193022316723632
0.8302453062163513,0.8867711450943947,0.3191887935514836,0.524384016216626,0.45749936494993304,0.31960057534911746
0.836007491198249,0.89143287837353,0.31769929204697805,0.5057307569293804,0.4578972391723932,0.31938155711950206
0.841199633041696,0.8950490625872669,0.31784951342184914,0.487195179190474,0.45828226774228503,0.3187049051094744
0.8457368256397263,0.897620835481585,0.3196202663156724,0.4689087755845086,0.45878849446927533,0.3176441627444427
0.8495332758490642,0.89915718971896,0.3229567261219272,0.45100107984645355,0.45953668503622563,0.31628518364007485
0.8525064331763942,0.8996739262566357,0.3277694805016986,0.4335956607915061,0.4606314008413079,0.31472403123859927
0.8545812597223268,0.8991922481391249,0.33393722599564774,0.41680589733878864,0.46215945177149526,0.3130643163581912
0.8556943076017195,0.8977370962561079,0.3413111210679759,0.40073071167238766,0.4641896741445965,0.311414042950923
0.8557972837898676,0.8953353758766949,0.3497206790787969,0.3854504829762605,0.46677386220700184,0.30988206901917387
0.8548598281064084,0.8920142634946399,0.35898095247454437,0.37102340244359394,0.46994857893105907,0.3085743225195493
0.852871305977845,0.8877998115811061,0.36890062827245923,0.3574825553545284,0.473737494427925,0.30758993789966144
0.8498415170394898,0.8827160782457076,0.379290537982756,0.34483402182261047,0.4781538566785629,0.30701749480907164
0.845800333347116,0.8767849943841739,0.3899719965606324,0.3330562688307627,0.48320269573485586,0.30693154448304305
0.8407963940273107,0.8700271390617451,0.400784338338899,0.3221010583109334,0.4888824020900576,0.30738960047515296
0.8348950821969674,0.862463523408906,0.4115910245647944,0.31189601736478717,0.49518540171073827,0.3084297493506681
0.8281760807326964,0.8541183859654033,0.4222837648351691,0.30234890829953354,0.5020977691280639,0.3100690055815011
0.8207308339214909,0.8450228834701289,0.4327842258729481,0.29335350247059994,0.5095977665651611,0.3123024963371827
0.8126602242436752,0.835219429523731,0.44304309179047424,0.284796811253291,0.517653457983465,0.3151035200596494
0.8040727054675626,0.8247663018286256,0.4530364791669447,0.27656727175626916,0.5262197057612081,0.3184244817496816
0.7950830199381159,0.8137420221988994,0.4627599795728989,0.2685633392320167,0.5352349962901461,0.3221986713809582
0.7858114821033672,0.8022489293394311,0.4722208765978814,0.26070181975733747,0.5446186407748814,0.3263428221900165
0.7763836517556949,0.7904153297488528,0.48142933380412,0.2529252035247801,0.554268942384418,0.3307603633815708
0.7669300745031543,0.778395642298224,0.4903895413864759,0.24520724763972795,0.5640628978367022,0.3353452655570629
0.7575856617174948,0.7663680580810879,0.499091910205621,0.23755612088509262,0.5738579033731948,0.33998636342494176
0.7484882446432207,0.7545294232892527,0.5075073843599952,0.23001456904615208,0.5834957621174283,0.34457202417808586
