x-axis (g),y-axis (g),z-axis (g),x-axis (deg/s),y-axis (deg/s),z-axis (deg/s)
0.8150991018927489,0.696475134633886,0.4869150574603126,0.7185217164753246,0.3445974488370681,0.22221108534457934
0.8191183834306325,0.7115461121563751,0.4789432536022486,0.709463603661641,0.3526048878478475,0.2275712035154776
0.8231322131021527,0.7265107437734546,0.47112187370027786,0.700405249493989,0.36053520203780404,0.23289111073580024
0.8271686813734028,0.741319673295992,0.4636437883015111,0.6912884565938338,0.36832596817796165,0.23813242934632475
0.8312527057842709,0.7559236736780197,0.45668829412500916,0.6820639465397041,0.37591651180737135,0.24325645788029898
0.8354040385379692,0.7702724153131453,0.45041475994956764,0.6726949770913966,0.38324933966979824,0.24822464977163541
0.8396357017088629,0.7843136083653409,0.4449574455201538,0.6631597905621288,0.3902717795352654,0.2529994047877271
0.8439528970449913,0.7979925626280155,0.4404216244842153,0.6534528375482324,0.39693774418695055,0.25754516043044556
0.8483524056752834,0.811252177708223,0.436881051414623,0.6435848024343134,0.40320949932151257,0.2618297247138714
0.8528224676177365,0.8240333505000185,0.43437673574222474,0.6335815277540284,0.40905928946576237,0.26582575141241843
0.8573431128252732,0.8362757661538273,0.43291692732206905,0.6234819909330589,0.4144706661699547,0.26951222901237215
0.8618869041594014,0.8479190227394764,0.4324781812224801,0.6133355279761129,0.4194393711544086,0.2728758385554318
0.8664200465196372,0.8589040278610913,0.43300735172941784,0.6031985242831099,0.42397365390514435,0.27591203492534977
0.8709038130106135,0.8691745967720865,0.43442436361035114,0.5931308038588566,0.4280939462306027,0.2786257207504256
0.8752962359391232,0.8786791752332239,0.4366256170683855,0.5831919461417283,0.4318318712207482,0.28103141029096157
0.8795540054008955,0.8873726058001636,0.43948789588945647,0.5734377462514166,0.43522862505320514,0.2831528195442011
0.8836345098698283,0.8952178530456538,0.4428726610292939,0.5639170115021048,0.43833283048119787,0.2850218645746649
0.8874979413064276,0.9021876013868596,0.4466306206530096,0.5546688564291365,0.44119801387312346,0.286677098559647
0.8911093728693827,0.9082656390199197,0.45060647055695086,0.5457206222038509,0.4438798973420885,0.2881616649580079
0.8944407024955979,0.9134479435734623,0.4546436959550758,0.5370865060195481,0.4464337192081607,0.289520885581917
0.8974723433928086,0.9177433902762582,0.45858931841527595,0.5287669436832917,0.44891179709905876,0.2907996347771539
0.9001945362189482,0.9211740125242266,0.46229846306407135,0.5207487461218536,0.4513615279358837,0.29203967181729884
0.902608160578874,0.9237747584317533,0.4656386143766447,0.5130059496901992,0.4538239796094775,0.29327711138871104
0.9047249378913914,0.9255927056704314,0.46849342717963205,0.5055013029079015,0.4563331740705673,0.2945402061473753
0.9065669448885184,0.926685720607309,0.4707659654906893,0.4981882802893796,0.4589160961447566,0.29584759629528784
0.9081653966707599,0.9271205758909208,0.4723812569661899,0.4910134888299583,0.46159339294579177,0.2972071504828996
0.9095587083327954,0.9269705720531126,0.4732880751432116,0.4839193157202139,0.46438066193785643,0.2986154824869381
0.9107899010707939,0.9263127416944428,0.4734598940945893,0.4768466578586612,0.4672901678101874,0.3000581820955208
0.911903477478152,0.9252247472234043,0.47289499813824487,0.46973757513085074,0.4703327847882581,0.3015107499313748
0.9129419457395317,0.9237816124203371,0.47161576960039453,0.4625377201297408,0.47351993585970176,0.3029401781847832
0.9139422177946417,0.9220524516604285,0.4696672167015917,0.4551984163977003,0.47686529601378685,0.30430707590578093
0.9149321369287199,0.9200973759203402,0.46711483790439756,0.4476782842637225,0.4803860435518306,0.3055682017194336
0.9159274014684465,0.9179647595156758,0.46404194558304507,0.4399443463628193,0.48410348061925423,0.30667924105210254
0.9169291407916854,0.9156890442550366,0.46054658861335945,0.43197258199951816,0.4880428985219322,0.30759765086163393
0.9179223671576104,0.9132892375169284,0.45673821953027477,0.42374793838646996,0.4922326309510185,0.3082853932113324
0.9188754734895134,0.9107682277632019,0.4527342475505646,0.415263844973118,0.49670231375320906,0.30871138963443373
0.9197408767360535,0.9081129963307012,0.448656605410817,0.4065213119996855,0.5014804474783684,0.30885355002143017
0.9204568239975622,0.9052957501655886,0.4446284379239846,0.39752772352198323,0.5065914324483368,0.3087002608601492
0.9209502906129666,0.9022759396243474,0.44077099629883737,0.388295456091091,0.5120523094387192,0.30825125558612143
0.9211408128487854,0.8990030625137175,0.4372007977033799,0.3788404650360642,0.5178694866358383,0.3075178316728108
0.9209450197108571,0.8954200947050251,0.434027087232871,0.3691809794333711,0.5240357605583218,0.3065224218500443
0.9202815651483862,0.8914673337367063,0.43134962179511005,0.3593364336411462,0.5305279415703711,0.30529756748761583
0.9190761189273409,0.887086399540981,0.4292567840679476,0.3493267379341849,0.5373053714769219,0.3038843779988683
0.9172660556788034,0.8822241100866542,0.4278240302208388,0.33917195455181254,0.5443095713450854,0.3023305888442117
0.9148044893560774,0.8768359428082678,0.4271126770271624,0.328892400732562,0.5514651840564851,0.3006883506824168
0.9116633350170832,0.8708888075450355,0.42716904076824547,0.31850915050084494,0.5586822821991666,0.2990118924481859
0.907835140085403,0.8643628942768283,0.4280239494875534,0.30804485645848423,0.5658600038295923,0.29735520136636423
0.9033335098406955,0.8572524185284341,0.4296926586211056,0.29752476662703126,0.5728913642143053,0.2957698535845465
0.8981920520042631,0.8495651664804044,0.4321752044907215,0.286977774732382,0.5796689800386693,0.29430311128946524
0.892461876642853,0.8413208363733213,0.4354572274745525,0.27643732020147116,0.5860913435451095,0.2929963774709493
0.8862078027903182,0.8325482768500829,0.43951128438942405,0.2659419506965418,0.5920692072970819,0.29188406990926147
0.879503533964934,0.82328182912004,0.4442986463460653,0.2555353779772079,0.5975315943960637,0.29099294373156137
0.8724261625496212,0.8135570798070029,0.44977154414655685,0.24526589805030496,0.6024309407194968,0.2903418593443254
0.8650504393319638,0.8034064159713125,0.45587577997570383,0.23518510740695378,0.606746909055149,0.2899419619718746
0.8574432915781662,0.7928548339307497,0.46255357529924046,0.22534592458735914,0.6104884904259844,0.2897972124891834
0.8496590843421382,0.7819164806502904,0.46974647583299406,0.21580001380764802,0.6136941221646309,0.2899051884882669
0.8417360907349023,0.7705923935684303,0.4773980918717088,0.20659479624196964,0.6164296982747469,0.2902580609147084
0.8336945656379304,0.7588698469956029,0.4854564236468514,0.19777031459539374,0.6187845146275734,0.2908436460346489
0.825536705046783,0.7467236089827554,0.49387551420509535,0.18935627707737201,0.6208653660663418,0.2916464353048414
0.817248624705678,0.7341192639975406,0.5026161930760281,0.18136963761778155,0.622789179229183,0.29264851673526066
0.8088043156042972,0.721018570480183,0.5116457271892124,0.17381306184007256,0.6246747081031184,0.2938303198132229
0.8001713426672479,0.7073866097402135,0.5209362824395113,0.16667457774537375,0.6266339242768451,0.2951711407024876
0.7913178622563581,0.6932002597244096,0.530462217252983,0.15992861539344566,0.6287637884056066,0.29664943340755257
0.7822203619685395,0.6784573140768766,0.5401963710282276,0.15353850538479835,0.6311390853035043,0.2982428835783784
0.7728713917010926,0.663185386784396,0.5501056630573194,0.14746034154689946,0.6338069391397337,0.2999283118868248
0.7632864764001248,0.6474496200568952,0.5601464645660164,0.1416479342645017,0.6367834999811093,0.30168148040563
0.7535093938922197,0.631358171548318,0.5702603274843064,0.1360584073898618,0.6400531168872182,0.3034768950261137
0.743615076444856,0.6150645166048234,0.5803707264331419,0.1306578467812917,0.6435701000045316,0.3052877066604289
0.7337095560581113,0.5987657753747402,0.5903814740266666,0.1254263163010121,0.6472629433263103,0.3070858112398944
0.7239266163270962,0.5826965671117784,0.600177386795346,0.12036153960206254,0.6510406527785578,0.30884223163235164
