x-axis (g),y-axis (g),z-axis (g),x-axis (deg/s),y-axis (deg/s),z-axis (deg/s)
0.670156588363921,0.6254767094805301,0.5684826411612959,0.6832375700737786,0.2657737389323778,0.19529576273896573
0.683672333532705,0.6443636264965512,0.5586400659323535,0.6805193271388111,0.28546678343493154,0.19999971569856898
0.6969313903008073,0.663156040333226,0.5487981712603204,0.6777361067548994,0.3051466396747113,0.20472000762876214
0.7097156662615918,0.6818327386149243,0.5389436558639207,0.6747351537974422,0.32481715188615257,0.2095238027143103
0.7218303871510413,0.700366810857822,0.529073957406405,0.671375613913762,0.3444618403288537,0.21447148493605914
0.7331147417087904,0.7187214037706243,0.5192028603731791,0.6675324555800237,0.36403629220355493,0.21961392842724192
0.7434502767942882,0.7368466246058203,0.5093644613113474,0.6630991666516408,0.3834638451930299,0.22499054543858646
0.7527664287095663,0.7546777873511982,0.49961511970013156,0.6579893534845351,0.4026350315157934,0.23062810711348217
0.7610428290024458,0.7721350803880047,0.4900332272350605,0.6521374184532478,0.42141085789584043,0.23654029093706289
0.7683082952928775,0.7891246219018704,0.4807168372768869,0.6454985111018158,0.43962961624796404,0.24272787849261934
0.7746366823692049,0.8055407690004251,0.47177938812010317,0.6380479433239861,0.457116590752851,0.24917950717734014
0.780140001995693,0.8212694645931696,0.46334391119706075,0.6297802356278505,0.47369577866011936,0.25587286828904504
0.7849594031983708,0.8361923469732598,0.45553622647194664,0.6207079262115288,0.48920259181862313,0.26277623964583113
0.7892547265973124,0.8501913128619195,0.4484776862318506,0.6108602337630387,0.5034964586740275,0.26985024196539065
0.7931934019529971,0.8631532154612936,0.4422780351862,0.6002816244662682,0.5164722965984602,0.27704971321222527
0.7969394493410753,0.8749743929338886,0.43702891416874257,0.5890302984391639,0.5280699577189067,0.28432560298917514
0.80064327861398,0.8855647562527158,0.4327984555031491,0.5771765842094576,0.5382809479153753,0.2916267991362441
0.8044328704899019,0.8948512139886432,0.4296273112998895,0.5648012138754945,0.547151955454322,0.2989018106222802
0.8084067796559614,0.9027802701186967,0.42752633355299047,0.5519934469368859,0.5547849795539108,0.30610024436415695
0.8126292404829785,0.9093196939902565,0.42647599844150863,0.5388490167854052,0.5613340985880433,0.3131740286258625
0.817127493541311,0.9144592240935988,0.4264275467899434,0.5254678888465734,0.5669991445142316,0.3200783519246585
0.8218912985402932,0.9182103248903151,0.42730570611068425,0.5119518408926331,0.5720167406179322,0.3267723035634275
0.8268744664754788,0.9206050651997649,0.42901277243266434,0.4984019011386775,0.5766493045870696,0.33321921951337846
0.8319981375490908,0.9216942252919317,0.4314337650956554,0.4849157052057338,0.5811727135438821,0.33938675472205077
0.8371554556672026,0.9215447668142182,0.43444232551723144,0.4715848557882554,0.5858633712669317,0.3452467192192758
0.8422172460446892,0.9202368150851756,0.4379070105367162,0.4584923861529909,0.5909854130746187,0.3507747297611661
0.8470382883563193,0.9178603082051352,0.44169763006301654,0.4457104382701406,0.596778735928826,0.35594974029754267
0.8514637908825885,0.9145114636995949,0.44569129457126366,0.43329826707104335,0.6034484572915672,0.36075352243146014
0.8553357069561531,0.9102892033250035,0.4497778675812238,0.4213006735878898,0.6111562943085974,0.36517017053549544
0.8584985888078571,0.9052916626795616,0.45386455893214306,0.409746952069163,0.6200142237445593,0.3691857047456076
0.8608047404820922,0.8996128966807428,0.45787944418769166,0.3986504110055291,0.6300806415840209,0.37278783834218326
0.8621185057097415,0.8933398767028692,0.4617737520252401,0.3880084975496835,0.6413590978691955,0.3759659639960071
0.8623196035467424,0.8865498615249283,0.46552282343236207,0.37780352182915217,0.653799545067555,0.378711396270847
0.861305499515508,0.8793082128242258,0.46912571245350265,0.3680039451517257,0.6673019140375785,0.38101788626082606
0.8589928685248003,0.8716667166293193,0.4726034664107587,0.35856616703172667,0.6817217263065988,0.3828823993158499
0.8553182639358677,0.8636624640962248,0.47599619186709746,0.3494367228495431,0.6968773693139386,0.3843061198864576
0.8502381511878631,0.8553173368281546,0.47935907847828846,0.34055478860831173,0.712558605348326,0.38529562039101706
0.8437284914321941,0.8466381320128444,0.4827576131262739,0.3318548825416574,0.7285358562644296,0.3858641057756711
0.8357840685860085,0.8376173491134516,0.4862622677715669,0.3232696550732344,0.7445698041141712,0.38603262440225544
0.8264177412194988,0.8282346411420756,0.4899429825824339,0.3147326676167563,0.7604208703439568,0.3858311213980002
0.8156597693296173,0.8184589086067674,0.4938637875611601,0.3061810748407074,0.7758581795209127,0.3852992047961874
0.8035573175923453,0.8082509827871884,0.4980779081398116,0.2975581416141149,0.7906676728801119,0.38448649943987706
0.7901741751503109,0.7975668078192153,0.502623681073588,0.28881554198496723,0.8046591068640587,0.38345247980313263
0.7755906630566901,0.7863609900800181,0.5075215657341059,0.2799154005091664,0.8176717465858814,0.3822657008116696
0.7599036311739882,0.7745905416798551,0.5127724734540134,0.2708320439559101,0.8295786384120634,0.3810023845609228
0.7432263844533107,0.7622186066781037,0.5183575564117213,0.2615534327588925,0.8402894149993562,0.3797443685192887
0.7256883320592565,0.7492179289449402,0.5242395018169022,0.2520822366864551,0.8497516466140156,0.37857647420450813
0.7074341290321824,0.73557380475609,0.530365272474697,0.24243650951641288,0.8579508022318754,0.37758341025334397
0.688622084818401,0.7212862664085691,0.5366701279439796,0.23264990570713734,0.8649089220042888,0.37684637533779275
0.6694216494086279,0.7063712696785349,0.5430826589871481,0.22277137180137702,0.8706821297446365,0.3764395692167119
0.6500098563198186,0.6908607105032,0.5495304796110035,0.21286424074678806,0.8753571317951477,0.37642684917169383
0.6305666990564246,0.6748011752406262,0.5559461531934305,0.2030046625753342,0.8790468593463898,0.37685877965598413
0.6112695371825413,0.6582514317174976,0.5622728885767727,0.19327932336178819,0.8818854176537478,0.37777031192705396
0.5922867595102992,0.6412787891883932,0.5684695337497947,0.1837824381495678,0.8840225101030462,0.3791792962562849
0.5737710621639435,0.6239545850872912,0.5745144220549552,0.17461205276479602,0.8856175096181886,0.3810859727345444
0.5558528136386668,0.6063491827566537,0.5804076895936948,0.1658657520235944,0.8868333555017638,0.3834735108966244
0.5386340622206963,0.5885269725587022,0.5861717808282997,0.15763594321307134,0.8878304604679252,0.3863095790237419
0.5221837791721022,0.5705419431401453,0.5918499876341449,0.15000495701336866,0.8887608193990933,0.3895488289291691
0.5065349125880895,0.5524344148497354,0.5975030177899896,0.14304027446899453,0.8897625164774104,0.3931360908434507
0.4916837448520444,0.5342294905209923,0.6032037521200572,0.13679023833439308,0.8909548285650292,0.39700999609740945
0.4775918999192606,0.5159376716425444,0.6090305131821173,0.13128063015173846,0.8924341176623923,0.401106692839324
0.46419114072946555,0.49755790846565395,0.6150593191530681,0.12651248198166526,0.894270691809852,0.40536330075865495
0.451390844501388,0.47908310717644625,0.6213557205969986,0.12246143755435164,0.8965067902754151,0.40972077074661106
0.4390877640750876,0.46050782156122905,0.6279669019670334,0.11907887938189336,0.8991558143636708,0.4141258767290129
0.4271774024737646,0.4418375359031876,0.634914762687262,0.11629489877047908,0.9022028795880619,0.4185321668489848
0.4155660755143773,0.42309863426010336,0.6421906662245562,0.11402301324754006,0.905606709039063,0.4228998316767912
0.40418254572922346,0.4043478896154711,0.6497524556087658,0.1121663453403799,0.9093028231898045,0.4271945947562406
0.3929880112462378,0.38568013881414054,0.6575241814401369,0.11062478820576417,0.9132079105898991,0.431385877500879
0.3819832523186973,0.36723277838457935,0.6653987803638883,0.10930252187401446,0.9172251902099462,0.43544461503260795
0.3712118942990327,0.34918585759188897,0.6732436911287111,0.10811513528131021,0.9212505037091564,0.4393411800239277
