x-axis (g),y-axis (g),z-axis (g),x-axis (deg/s),y-axis (deg/s),z-axis (deg/s)
0.5845007942201629,0.3659870135994182,0.6266315310241777,0.8344500870519609,0.28975211559773917,0.19507683563044548
0.5894069428827485,0.378015534657456,0.6250558520805964,0.8307418040550247,0.2845886509537485,0.19642252959718784
0.5944773922495644,0.39003073440423897,0.6236812316744683,0.8270419580747791,0.2795287369114732,0.19775063905955587
0.5999427859229125,0.4020763256802655,0.6226871943762906,0.8233628431420205,0.274698611232173,0.19903257367799515
0.6060052535247594,0.41418453161233215,0.6222266934096019,0.8197205968243829,0.27021487484813145,0.20024081233362953
0.6128242068842673,0.42637331191119693,0.6224119296616255,0.8161350380354474,0.2661820241493436,0.20135015843252824
0.6205053756780703,0.4386453711047181,0.623303064869441,0.8126287533711418,0.2626908600536507,0.20233897108809265
0.6290937182807017,0.4509889116912974,0.6249007435792883,0.8092254663318443,0.2598177096498714,0.20319032793205494
0.6385705261585887,0.4633799358539855,0.6271430010276245,0.8059478142880518,0.25762434680785923,0.20389307619310273
0.6488547226778347,0.47578576874358736,0.6299067625726043,0.8028147357374996,0.2561584658215209,0.20444273054261802
0.6598080665006699,0.4881693853239561,0.6330137697961637,0.7998387258329946,0.2554545475248388,0.2048421792252624
0.6712437265358107,0.5004940771002748,0.6362404299883895,0.7970232451107128,0.2555349589645733,0.2051021642989214
0.6829375132781644,0.5127279952285974,0.6393308044072216,0.7943605622523972,0.25641114264962944,0.20524150744559502
0.6946409367300069,0.5248481483993968,0.6420117442420278,0.7918302776050378,0.25808477576954664,0.20528705972384842
0.7060952138259174,0.5368435097291573,0.6440090618128249,0.7893987142576661,0.26054880951347315,0.20527336166460466
0.7170453629162543,0.5487169865132565,0.6450635911651272,0.7870192844049545,0.26378833000440965,0.2052420090464881
0.7272535900039477,0.5604861188285062,0.6449460433128017,0.7846338487930933,0.2677812124069228,0.20524072926492162
0.7365112792719606,0.5721824864995171,0.6434696878864338,0.7821749952254796,0.27249856641547965,0.20532218315627299
0.7446490362035683,0.5838499089153826,0.6405000815076405,0.7795690771945095,0.2779049934671767,0.20554251718241962
0.7515443827657048,0.5955416106233542,0.6359612974195165,0.7767397835087189,0.2839586933247661,0.20595970075707423
0.7571268594007228,0.6073165920073653,0.6298383725292246,0.7736119604836225,0.2906114703839262,0.206631692937499
0.7613804385274733,0.6192354857909318,0.622175958188327,0.7701153839601091,0.29780869870993393,0.2076144914320496
0.764343291663175,0.6313561962403479,0.6130734213278851,0.7661881808739285,0.30548930999181206,0.20896012457007365
0.7661050721635626,0.643729610665163,0.6026768759967098,0.7617796287155756,0.3135858707693242,0.21071465318592994
0.7668019750193245,0.6563956457412776,0.5911688172569384,0.7568521131590409,0.3220248146478362,0.2129162538792352
0.7666099129306938,0.669379849105271,0.5787561681738373,0.7513820946632572,0.33072689170352776,0.21559345739774857
0.7657362040758109,0.6826907249347706,0.5656576283764395,0.7453600177741939,0.33960789060297303,0.21876361552252815
0.764410202497281,0.6963178961750992,0.5520912255625293,0.7387891850876293,0.3485796786910768,0.22243166644448334
0.7628733182170513,0.7102311605295564,0.5382629199399865,0.7316837039738378,0.3575515910148335,0.2265892619406174
0.7613688725915427,0.7243804462493975,0.5243570008754269,0.7240656911077299,0.36643218067348976,0.23121430958049535
0.7601322165978869,0.7386966299616651,0.5105288540191041,0.7159619813333489,0.3751313200476165,0.23627096981867093
0.7593815072449392,0.7530931438467326,0.4969004785315271,0.7074006284921933,0.3835626158304563,0.24171013149580442
0.7593094917201577,0.7674682738080743,0.48355891314984145,0.6984075033299865,0.39164607138216956,0.24747037057056118
0.760076591962031,0.7817080331996314,0.470557503779699,0.6890032861605452,0.39931089937170194,0.2534793766676831
0.7618055161104721,0.7956894867290597,0.4579197315699729,0.6792011202989277,0.40649835817092134,0.25965581129127696
0.7645775501219513,0.8092843944013324,0.44564513554681967,0.6690051389764785,0.41316445971897797,0.26591154149604745
0.7684306055208512,0.8223630437522312,0.4337167220442444,0.6584100077801058,0.41928237757538345,0.27215417467146646
0.773359020915907,0.8347981383247213,0.42210916500947177,0.6474015421728386,0.4248443746402484,0.2782898050700983
0.7793150388879756,0.8464686100824722,0.4107970729064101,0.6359583717356974,0.4298630732278479,0.2842258718423548
0.7862118095520908,0.8572632227163323,0.3997626304090286,0.6240545361175915,0.4343719078294939,0.2898740224025998
0.7939277107610329,0.8670838319384901,0.3890020121441214,0.6116628187825077,0.438424633941,0.29515287436405097
0.8023117254396974,0.8758481690899749,0.37853010227859046,0.5987585593226339,0.44209381437299544,0.2999905740372104
0.8111895812642406,0.8834920176332237,0.3683832245088391,0.5853236381310796,0.4454682656145666,0.30432705913767716
0.8203703384761882,0.8899706607268912,0.3586197758365473,0.5713503020470772,0.44864951764843874,0.3081159470271122
0.8296531088984614,0.8952594945304885,0.349318846795341,0.5568444981825784,0.45174741627776505,0.3113259863178614
0.8388336031926291,0.8993537282757842,0.34057708308939355,0.5418284059974361,0.4548750715655237,0.313942027614452
0.847710233198932,0.902267129831656,0.33250418327281234,0.5263419038605359,0.4581434227780087,0.31596548712961
0.8560895401410757,0.9040298247083306,0.32521752175105867,0.5104427735531335,0.4616557425122087,0.3174142936519685
0.8637907751079035,0.9046852159997557,0.3188364280715233,0.4942055310133859,0.4655024342215864,0.31832232395517224
0.8706495224339191,0.9042861598632088,0.3134766394529008,0.4777188696523209,0.46975648302740636,0.31873834380121807
0.8765203257340978,0.9028906014002668,0.3092453765648878,0.4610818084800137,0.4744698961564045,0.3187244813285518
0.8812783463326762,0.9005569434227764,0.30623738081076335,0.44439874499583926,0.47967141549480935,0.31835426747749024
0.8848201503124901,0.8973394786753004,0.30453210750091686,0.427773715602258,0.48536570215718405,0.31771028525393163
0.8870637789325228,0.8932842572027788,0.30419210951624365,0.4113042569777,0.4915340860354508,0.3168814773427187
0.8879483033036545,0.8884257773784556,0.3052624884832139,0.3950753328752873,0.4981368492074001,0.3159601710842715
0.8874330938270203,0.8827848752208334,0.30777115346116674,0.37915383470504654,0.5051168805149182,0.31503889202158025
0.8854970443565207,0.8763681373417872,0.31172952738424065,0.3635841739881275,0.5124044111388124,0.3142070524119972
0.8821379775538178,0.86916907604957,0.317133292295097,0.34838545440754404,0.5199224302188385,0.31354761878215587
0.8773724198850189,0.8611711819343487,0.32396277406938007,0.3335506366229407,0.5275922980852988,0.313133881386338
0.871235872238716,0.8523528146767189,0.3321826380131777,0.3190479888545382,0.5353390337972825,0.3130264660379731
0.8637836174021539,0.8426937159329396,0.34174069373628035,0.3048249526148003,0.543095762134635,0.31327074224853757
0.8550920032999421,0.8321827420715203,0.35256577946462586,0.2908143523439674,0.550806867784081,0.31389478756186323
0.845260028443143,0.8208262358638131,0.36456489453710267,0.276942651427277,0.5584295209930632,0.3149080630756034
0.8344109437437233,0.8086563040567023,0.3776199512634664,0.26313972151329074,0.5659334033993239,0.3163009365781641
0.822693485535254,0.795738162174835,0.39158469748483743,0.2493493682666187,0.5732986628370774,0.31804515572071645
0.8102822829254009,0.7821756680945828,0.4062824922640142,0.23553966939847773,0.5805123434376165,0.3200953239294866
0.7973769537098832,0.768114207917387,0.42150567447321347,0.2217120566937529,0.587563748961727,0.3223913679747763
0.7841994311304635,0.7537402318861982,0.43701722814886923,0.20790803894481422,0.5944393762844673,0.32486191197837533
0.7709891596764541,0.7392769670691945,0.452555307991702,0.19421253971127997,0.6011181746112886,0.32742839396023393
0.7579959671870887,0.7249761499507681,0.4678409427046764,0.18075302785079833,0.6075679189426781,0.33000968536285397
