x-axis (g),y-axis (g),z-axis (g),x-axis (deg/s),y-axis (deg/s),z-axis (deg/s)
0.5507791717839609,0.40034132028058417,0.617910460927573,0.7513467929563458,0.3177866052132242,0.11299420581992582
0.5554763214458599,0.4175473852846521,0.6158701227184578,0.7473982613673295,0.31793906387238363,0.11754570427706663
0.5603464625021907,0.43471002947712933,0.6138510246412104,0.7434083326266113,0.3180514730249006,0.12215637866176113
0.5656575975334103,0.4518913163675416,0.6118410833195966,0.7393115529979231,0.3181763112806102,0.12689057291714628
0.5716508016090058,0.4691409979993024,0.6098277978994584,0.7350528470781339,0.31837211613248523,0.1317985037429992
0.5785257747378019,0.4864927190808167,0.6077963008922214,0.7305904857341388,0.3187066116930842,0.1369117744866517
0.5864290464836717,0.50396214053349,0.605727373570364,0.7258977338001984,0.3192589446727632,0.14224077628893622
0.5954454105085476,0.5215468954110863,0.6035957019114464,0.7209631278620641,0.32012050821651966,0.14777417210118002
0.6055929737903063,0.5392281387289022,0.6013686229362624,0.7157894485524712,0.3213940034851779,0.1534804584854279
0.6168220037481107,0.5569733378156466,0.5990055627705589,0.7103915545685687,0.3231906011042444,0.15931140707121155
0.6290175549156588,0.5747398785168661,0.5964583025784066,0.7047933289057999,0.3256252936441041,0.1652070211453668
0.6420056625418737,0.5924790372892834,0.5936721331701381,0.6990240456876285,0.32881074989894554,0.1711015177621276
0.6555627104407395,0.6101398877169797,0.5905878803746979,0.6931144951623881,0.3328501675043096,0.17692977129928952
0.6694274212791509,0.6276727661413913,0.5871447077937911,0.6870932042976033,0.3378297524271466,0.18263363421244722
0.6833147859931535,0.6450320058939172,0.5832835372892472,0.6809830627795478,0.34381151859695824,0.1881675831364483
0.6969311516794923,0.6621777522481307,0.5789508754094888,0.6747986131266825,0.35082709264715956,0.19350321710494064
0.7099896299847097,0.6790767792929474,0.5741027994649757,0.668544194736426,0.35887312968589224,0.19863224959545892
0.7222249752446858,0.6957023346551173,0.5687088420352757,0.6622130518043534,0.36790880601517345,0.2035677751296191
0.733407115884906,0.7120331290843712,0.562755517550994,0.6557874314719255,0.37785566973751444,0.20834374100743847
0.7433526036274891,0.7280516583287919,0.5562492578184485,0.6492396184201035,0.3885999204026723,0.2130127023681603
0.7519333694635543,0.7437420901404234,0.549218562081317,0.6425337818449018,0.39999697627902553,0.2176420723444127
0.75908233647539,0.7590879681683395,0.5417152174724514,0.6356284554997454,0.4118779939114778,0.222309188911814
0.7647956277725135,0.7740699781148592,0.5338145028515564,0.6284794348200629,0.4240578479090845,0.22709559911310043
0.7691313110157465,0.7886639933415359,0.5256143481979704,0.6210428587652549,0.43634397323435836,0.232081005617292
0.7722048257912307,0.8028395723189207,0.5172334783526822,0.6132782477364132,0.44854542553680266,0.2373373290372097
0.7741814327082326,0.8165590251397844,0.5088086200985912,0.6051512908030848,0.4604815287127195,0.24292331385580662
0.77526619066378,0.8297771072705338,0.5004908924801698,0.5966362120665486,0.4719895480570474,0.24888005038841435
0.7756921003705577,0.8424413419130125,0.49244153027072973,0.5877175927997957,0.4829309419054149,0.2552277059758249
0.7757071400036483,0.8544929229232996,0.48482710925927935,0.5783915779609937,0.493195890386888,0.26196366283256917
0.775560958202677,0.865868111916721,0.4778144503991021,0.568666447652603,0.5027059604424773,0.2690621555140596
0.775491979924765,0.8765000180674968,0.47156537964164735,0.5585625814162499,0.5114149248838517,0.27647539562109885
0.7757156246596073,0.8863206375877604,0.46623151389393513,0.5481118821109714,0.5193078946748947,0.28413607234830085
0.7764142403490757,0.8952630307948657,0.4619492336223441,0.5373567538997331,0.5263990354595526,0.29196103099575854
0.7777292285347646,0.9032635256419763,0.4588349916175238,0.5263487442982133,0.5327282133094481,0.2998558624541003
0.7797556869321738,0.9102638543380137,0.4569810971965617,0.5151469634221084,0.5383569470241407,0.3077200882764553
0.7825397356245688,0.9162131505795017,0.45645210665015795,0.5038163858484971,0.5433640360708836,0.31545260002766806
0.7860785329971774,0.9210697554133297,0.4572819440238567,0.4924261242204203,0.5478411896314841,0.32295700839359737
0.7903228370295461,0.9248027968296316,0.459471870302909,0.4810477418663155,0.5518889118526674,0.3301465759083783
0.7951818347083666,0.9273935197091305,0.4629894118180868,0.4697536475480334,0.555612812121695,0.33694844481302144
0.8005298532749554,0.9288363476881424,0.4677683476823946,0.4586155921599693,0.5591204187605848,0.3433069252675633
0.8062144858901458,0.929139657025126,0.4737098385948306,0.4477032675048218,0.5625184912571116,0.3491856750071496
0.8120656132125454,0.9283262359730667,0.4806847529695695,0.4370829931996602,0.565910759671062,0.35456867525178326
0.8179047817144622,0.9264333937681113,0.4885372093687376,0.4268164704994054,0.5693959771660595,0.35945998476135643
0.8235544082324732,0.9235126740998226,0.49708930608168017,0.41695958164926,0.5730661564178043,0.36388232990962643
0.8288463160937527,0.9196291221024835,0.5061469502886383,0.4075612197460732,0.577004873063005,0.3678746592754822
0.8336291682005722,0.9148600546651783,0.5155066330305557,0.39866214576852754,0.5812855560452346,0.3714888526186925
0.8377744431342741,0.9092932938437149,0.524962926164608,0.39029388471300636,0.5859697393652653,0.3747858228177966
0.8411806976231104,0.9030248441054347,0.534316408898073,0.38247768967681756,0.5911053138221655,0.3778312826209022
0.8437759681125995,0.8961560265584884,0.5433816705392991,0.37522361925649395,0.59672488107757,0.38069146386469976
0.8455182806812535,0.8887901262722702,0.5519949893266985,0.36852978791338975,0.602844365899722,0.38342907399204434
0.8463943565912839,0.8810286597992891,0.5600212608852412,0.36238185941081835,0.6094620768371931,0.38609975306956323
0.8464167142140949,0.8729674250674119,0.567359749405395,0.35675285879657226,0.6165584139280701,0.3887492549849605
0.8456194703165679,0.8646925496191707,0.5739482639136827,0.3516033777993799,0.6240964003103451,0.39141152115056377
0.8440532279127785,0.8562767994653407,0.5797654228256641,0.34688224137234974,0.6320231621483734,0.3941077470778725
0.8417794974521876,0.8477764428684581,0.584830761705914,0.3425276891970679,0.6402724012457222,0.3968464659363167
0.8388651271646219,0.8392289746261892,0.5892025584887407,0.33846910527969465,0.6487678038700041,0.3996245939246636
0.8353772124693435,0.8306519912287145,0.5929733913136925,0.3346293016219039,0.6574272177240347,0.40242930589583964
0.8313789111407718,0.8220434616243953,0.5962635980600771,0.3309273289488015,0.6661673192040396,0.40524054241902485
0.8269265107947544,0.8133835606512083,0.599212962977769,0.32728174963629425,0.6749083990319729,0.40803389740763535
0.8220679817907801,0.8046381239230377,0.6019711023784214,0.32361426682425665,0.6835788300168395,0.41078360395980723
0.8168431088013083,0.7957636490311619,0.6046871453785617,0.3198535613736656,0.6921187585664452,0.4134653292531073
0.8112851383065429,0.786713616923788,0.607499394698117,0.3159391476724258,0.7004825909880724,0.41605850949428924
0.8054237201178283,0.7774457513368364,0.610525695458793,0.31182502387391403,0.7086399312447601,0.4185480030471843
0.7992887735736414,0.7679296881463383,0.6138552283245403,0.3074828661335791,0.7165747672868986,0.42092491133030163
0.7929147887865203,0.7581544073621292,0.6175423724402189,0.3029045043356649,0.7242828899532302,0.42318650753266945
0.7863449948905246,0.7481347054997554,0.621603153473131,0.29810342320566535,0.7317677459121391,0.4253353146759521
0.7796348028074982,0.7379159712269229,0.626014608207309,0.2931150615771953,0.7390351513220196,0.4273774769072916
0.7728539676897346,0.7275765850856311,0.6307171710776995,0.28799573674377515,0.7460874972055452,0.4293206595580486
0.7660870184912654,0.7172274018807787,0.6356199370187657,0.28282010123426315,0.7529182289655215,0.4311717824801597
0.7594316651528636,0.7070079917444481,0.6406084011542658,0.27767714443398234,0.7595074492196362,0.4329349264465912
