x-axis (g),y-axis (g),z-axis (g),x-axis (deg/s),y-axis (deg/s),z-axis (deg/s)
0.8277941775377815,0.7449815067989688,0.4647517221070408,0.6854468671847692,0.33907367420336854,0.24631045639630475
0.8332666218240409,0.7561798760534548,0.45662324679411936,0.6760480151231512,0.3513445921078988,0.25097403225337617
0.8386896665906435,0.7673079917077967,0.4486202127259246,0.6666357629493225,0.36345763725140556,0.25561847860845177
0.8440463074908932,0.7783183038806282,0.4409267827653811,0.6571175953211331,0.3752618472836221,0.26023592514349997
0.8493211396579183,0.789161708067094,0.43371722564108456,0.6474121592623059,0.3866143778919024,0.2648161397765299
0.8545008025897838,0.7997862514775538,0.42715515359523326,0.6374549448103874,0.39738454877129126,0.2693452910266448
0.8595743529501529,0.8101363871355155,0.4213934826812852,0.6272025904432007,0.4074576715028074,0.2738051683854545
0.8645334849490357,0.8201528846279217,0.4165747313751514,0.6166356814968132,0.4167385004290312,0.278172934875772
0.8693725408604119,0.8297734376161549,0.41283128908982375,0.6057600133791162,0.4251541200118862,0.2824214294008512
0.8740882833325597,0.8389339378949937,0.4102853391025405,0.594606383134337,0.4326560717902227,0.28651998220433594
0.8786794322713806,0.847570320533202,0.4090482001968779,0.5832290485308993,0.4392215368119202,0.29043566038204094
0.8831459985564868,0.8556208303231491,0.4092189471339213,0.5717030510172744,0.4448534273948881,0.29413482594603824
0.8874884717570344,0.8630285210000666,0.4108822714210697,0.5601206370755583,0.44957930345012315,0.2975848686574551
0.8917069372474822,0.869743778372846,0.4141056414681928,0.5485870325816163,0.4534491080837129,0.30075597014157657
0.8958002083995579,0.8757266576686934,0.4189359075605612,0.5372158286542938,0.4565318068825049,0.303622763532874
0.8997650613288326,0.8809488431998677,0.42539556657944827,0.5261242276612312,0.4589111057785318,0.30616577171387627
0.9035956531796047,0.8853950724131118,0.43347895054376023,0.5154283773219248,0.46068050396595583,0.30837253397339204
0.9072831909299991,0.8890639126639699,0.443148630221091,0.5052389919663939,0.4619380021153452,0.3102383621351349
0.9108158975017145,0.8919678329792707,0.45433233032874637,0.4956574255172523,0.46278082497784284,0.31176669947258606
0.9141792972935172,0.894132569560489,0.46692063764439223,0.48677232290272326,0.46330052677307204,0.31296908599208123
0.9173568161447425,0.8955958378704926,0.4807657501326362,0.4786569372874993,0.46357882579404736,0.31386475952224785
0.9203306633457841,0.896405491405165,0.4956814671308212,0.47136716134455303,0.46368446273572445,0.31447994185116623
0.9230829378154164,0.896617264133176,0.5114445612916586,0.4649402831794495,0.4636712994753301,0.3148468720763394
0.9255968789729326,0.8962922576701516,0.5277976060721999,0.45939444271088453,0.4635777778864595,0.3150026553307907
0.9278581668644541,0.8954943443623357,0.5444532617645514,0.45472873347739623,0.4634277499647591,0.3149879947531958
0.9298561670653833,0.8942876536646712,0.5610999518749804,0.45092386909986787,0.4632325802457007,0.3148458691387144
0.931585014590244,0.8927342927319982,0.5774087932883959,0.44794331403872695,0.4629943185026574,0.31462020964266285
0.9330444377719556,0.8908924251786323,0.59304158098792,0.4457347657799835,0.46270965365510985,0.31435461786696284
0.9342402375446937,0.8888147973778703,0.6076595736613402,0.4442318708872838,0.4623742959318889,0.3140911562635715
0.9351843589585144,0.8865477627457424,0.620932782476836,0.4433560608564927,0.4619873988879096,0.3138692314704901
0.9358945187553435,0.8841308145484194,0.632549433432951,0.4430184053359567,0.4615556287449608,0.3137245830638982
0.9363933837061945,0.8815966000480598,0.6422252553769889,0.4431213993958719,0.4610965160042695,0.3136883849673441
0.9367073270841986,0.8789713559500852,0.6497122420243392,0.4435606268778665,0.46064078105958184,0.313786464662623
0.9368648228612554,0.8762756791654717,0.654806547632899,0.4442262715230752,0.4602334069544131,0.3140386462135026
0.9368945666470695,0.8735255291003968,0.6573552024296432,0.4450044790774679,0.4599333318511125,0.31445822636503934
0.9368234368228132,0.8707333484590659,0.6572613749349392,0.44577860398430297,0.45981174320794244,0.3150515977249719
0.9366744268097116,0.8679091885534316,0.6544879628549736,0.4464304004523386,0.4599490663954427,0.31581803816472503
0.9364646884216179,0.865061731380959,0.6490593604148883,0.44684123654847185,0.4604308438685129,0.31674968989691715
0.936203825778151,0.8621991128459627,0.6410613253778599,0.44689341878972316,0.4613427891456564,0.31783175402404673
0.9358925689090605,0.8593294678482656,0.6306389503153635,0.4464717114808426,0.46276536621354386,0.3190429256887679
0.9355219362140759,0.8564611369786334,0.6179928260627549,0.4454651187299923,0.4647682849163617,0.32035609052837755
0.9350729662497136,0.853602494947575,0.6033735662445813,0.44376896787319214,0.46740531390112083,0.3217392945339809
0.9345170633970884,0.8507613817734435,0.5870749354361072,0.44128729251866033,0.47070979450936734,0.3231569866448862
0.9338169608781812,0.8479441388264337,0.5694258849851587,0.4379354645568455,0.4746911935047268,0.32457151693105374
0.9329282608730981,0.8451542732222518,0.5507818450495011,0.43364297154023423,0.4793329634413242,0.3259448539442809
0.9318014680892798,0.8423907963033788,0.531515644990409,0.4283561841411775,0.48459189202382486,0.3272404640803767
0.9303843932779092,0.8396463056937842,0.5120084340304721,0.4220409139404334,0.4903990222221368,0.32842527525520765
0.9286247702564586,0.8369049061577716,0.4926409487589852,0.4146845307494006,0.4966621199729372,0.32947162874622526
0.9264729072900109,0.8341400922343085,0.4737854243576578,0.40629739676766313,0.5032695629248805,0.3303591086574715
0.9238841841896404,0.8313127445498644,0.4557983752598209,0.3969133867962277,0.5100954284762866,0.33107613001636216
0.9208212125342881,0.8283694199933125,0.439014383577382,0.386589302415589,0.5170054783030912,0.3316211656346185
0.9172554993332918,0.8252411405825143,0.42374093738156365,0.37540305413067343,0.5238636747738681,0.3320034997674616
0.9131684941722125,0.8218429028085251,0.41025426484532296,0.3634505768310046,0.5305388260711582,0.3322434139101828
0.908551954705498,0.8180741336530459,0.398796024386878,0.3508415553040451,0.5369109441576189,0.3323717367049535
0.9034076316960393,0.8138203061565364,0.3895706454190533,0.33769415969020783,0.5428769141717924,0.33242872504016135
0.8977463472005064,0.8089558915267461,0.3827430782369631,0.3241291146280922,0.5483551150918899,0.3324622853535293
0.8915866108481758,0.8033487626215136,0.3784367119483482,0.31026353724184996,0.5532886976354493,0.33252559047698566
0.8849529811625729,0.7968660735258719,0.3767312598929081,0.2962050637986589,0.5576473128206623,0.3326741950018111
0.8778744227850254,0.7893815230214305,0.377660492248515,0.2820468287737311,0.5614271883084672,0.33296279752011415
0.8703829280546284,0.7807837706816976,0.38120981021647965,0.2678638509829021,0.5646495630962823,0.33344183737268734
0.8625126561116908,0.7709856217021857,0.38731379506189256,0.2537113107021566,0.567357606753026,0.3341541428785832
0.8542997907944738,0.7599334428894589,0.39585401347724747,0.23962506586234847,0.5696120588528357,0.33513186394178845
0.8457832303096208,0.7476161334181549,0.40665749968249115,0.22562455780615884,0.571485919049468,0.3363939215859506
0.8370061019931518,0.7340728683355677,0.4194964436910209,0.21171800887068534,0.5730585902193405,0.337944188499214
0.8280179546955865,0.7193987794544663,0.434089673527004,0.19790953463289723,0.5744099193176019,0.3397705774878526
0.8188773347643581,0.70374775503067,0.4501065085534925,0.18420751032242824,0.5756145879901176,0.3418451597531101
0.8096543188252813,0.6873316405365613,0.46717346819166233,0.17063327742678652,0.5767372751911964,0.34412536468631627
0.8004324797105294,0.6704153156689441,0.4848841395077605,0.15722909056257395,0.5778289479904748,0.3465562316758551
0.7913097231728804,0.6533074065032328,0.5028122425000052,0.14406412411586128,0.5789245389674802,0.34907359806678545
0.7823974716259775,0.6363467548374857,0.5205275987077335,0.131237416115917,0.5800421472010174,0.35160802303579464
