x-axis (g),y-axis (g),z-axis (g),x-axis (deg/s),y-axis (deg/s),z-axis (deg/s)
0.8620229571376172,0.8934403271259234,0.6414718575843522,0.35775133722717734,0.6355401820053672,0.7305492578028877
0.8514906088457703,0.8823517211468762,0.6388351366920826,0.35173547488404977,0.6485705215391334,0.7407376061364793
0.8410755717886726,0.8712678514370858,0.636148081459104,0.34570443367582465,0.6616085296247629,0.7508403412917453
0.8308450857264824,0.8601231724270971,0.6334122251388659,0.3395711360056486,0.6746920039989586,0.7607437064026626
0.8208607893286585,0.8488635875197311,0.630640513111388,0.3332567295241914,0.6878452066587133,0.7703343373010326
0.8111731663835736,0.8374486189150049,0.6278634152330402,0.32669396598801476,0.7010719057566427,0.7794982642795423
0.8018162258809731,0.8258519011000274,0.6251333288617681,0.3198296053113452,0.7143502607089967,0.7881204912652641
0.7928029145830259,0.8140601453159165,0.6225266953780905,0.3126258763448526,0.7276299683772953,0.7960854377047026
0.7841216876237425,0.8020708455172589,0.6201435204055221,0.30506107973573143,0.7408319013906828,0.8032783864810079
0.775734551210733,0.7898890844422358,0.618104271765842,0.29712945386902684,0.7538502734114225,0.8095879292606651
0.7675767546816507,0.7775238463715917,0.6165443959931702,0.28884044295061306,0.7665571757376201,0.8149092590964095
0.7595581619453136,0.7649842504247837,0.6156069172114406,0.28021750885226737,0.7788091581306608,0.8191480453436127
0.7515661898844581,0.7522760882635842,0.6154337432385766,0.2712966185538362,0.7904553844227117,0.822224549185858
0.7434700773749957,0.7393989893953349,0.6161563939299398,0.26212452066077063,0.8013467876684733,0.824077604753364
0.7351261541857246,0.7263444544761014,0.6178868855067432,0.2527569014973217,0.811345584900855,0.8246681008355248
0.7263837214448473,0.713094901634231,0.6207094584834247,0.24325648739872643,0.8203344898557264,0.8239816466197706
0.7170911376619283,0.6996237723261963,0.6246737375507648,0.23369113820912962,0.8282249828868745,0.8220301831691189
0.7071017252944917,0.6858966501565045,0.6297897742910153,0.22413195998657442,0.8349640580968173,0.8188523996276436
0.6962791675109726,0.671873265482881,0.636025264019848,0.21465145392164436,0.8405389639475909,0.8145129176862936
0.6845021449830075,0.6575101956307007,0.6433050620229903,0.20532171390464155,0.8449795790917535,0.809100308366384
0.6716680579991912,0.6427640282452821,0.6515129658483578,0.19621268651905507,0.8483582122588329,0.8027240919708568
0.6576957787533936,0.6275947347856539,0.6604955902907652,0.18739051322187705,0.8507867750220317,0.7955109378170236
0.6425274714116611,0.6119690016452503,0.6700680482242779,0.1789159832753008,0.8524114397218432,0.7876003207365913
0.6261295939730028,0.5958632855768307,0.680021068115585,0.17084313551885755,0.8534050520775049,0.7791399050549292
0.6084932487891052,0.5792663945395949,0.6901291293395518,0.16321805520571347,0.8539577097306326,0.7702809155372347
0.5896340736249944,0.5621814405560547,0.7001591779957741,0.1560779170031591,0.8542660356762395,0.7611737228105878
0.5695918613092256,0.5446270630990538,0.7098794952607029,0.14945032545364192,0.8545217621954402,0.7519638240564216
0.548430065523339,0.5266378754092285,0.719068322302522,0.14335299887384093,0.8549002913153707,0.7427883453310269
0.5262352981298843,0.5082641378567577,0.7275218944340393,0.13779383165195258,0.8555499089494173,0.7337731368342882
0.5031168568498852,0.48957070858643487,0.7350615962258765,0.13277135364914308,0.8565823009908975,0.7250304831897897
0.4792062496930888,0.4706353596946877,0.7415400128156628,0.12827558495764219,0.8580649523319472,0.7166574122422334
0.454656613473415,0.45154657555295225,0.7468457154995654,0.12428926111436847,0.860015907816708,0.7087345609676607
0.42964186683597877,0.43240096808394896,0.7509066779082123,0.12078937983376285,0.862401243206948,0.7013255465588681
0.4043554011789242,0.41330045218571376,0.7536922700457221,0.11774899739065012,0.8651354416446406,0.6944767931581304
0.37900810153698294,0.39434932417220847,0.7552138200336711,0.11513918294958726,0.8680847053769866,0.688217776798167
0.35382550735785717,0.3756513786338689,0.755523767723685,0.11293102426400148,0.8710730630006813,0.6825616683598288
0.32904397077263553,0.35730718631927216,0.7547134617305303,0.11109756985135487,0.8738909688388081,0.6775063717110446
0.3049057450133316,0.33941163928237905,0.7529096740207449,0.10961559219456748,0.8763059427437173,0.6730359668529884
0.28165303261063923,0.3220518511795956,0.7502699265354712,0.1084670644310218,0.8780746743527442,0.6691225720255549
0.25952113372941016,0.3053054814071678,0.746976745016084,0.10764025948195725,0.8789559230996612,0.6657286319904512
0.23873094914816498,0.28923953245588424,0.7432309784344016,0.1071304050936388,0.8787234898977015,0.6628096216248628
0.21948119837104546,0.2739096506887518,0.7392443496505331,0.10693985954162878,0.8771785221050359,0.6603171259059253
0.20194079938400236,0.25935994160842757,0.7352314345417765,0.10707780880631827,0.8741604416297901,0.6582022223787556
0.18624191181046687,0.24562329123482599,0.7314013020721306,0.10755952420523088,0.8695558559337749,0.6564190545050386
0.17247416098455162,0.23272216507244498,0.7279490845674502,0.1084052565515425,0.8633049200367344,0.6549284486969732
0.16068053116725675,0.22066983507619267,0.7250477826480523,0.1096388753199593,0.8554047590303584,0.653701399079926
0.15085534009368942,0.2094719631265254,0.7228406387673877,0.11128638537238694,0.8459097278011106,0.6527222261033637
0.1429445868929842,0.1991284473866062,0.7214344324848654,0.11337446612069879,0.8349284687752836,0.6519912108063622
0.13684880820861492,0.18963541668865652,0.7208940547368777,0.11592917584555852,0.8226179195035789,0.651526517054109
0.13242839421216412,0.18098723949879975,0.721238703137314,0.11897494560796282,0.809174609042579,0.6513652389486243
0.12951112172278534,0.17317840021813088,0.7224400023232045,0.1225339526369603,0.7948237544073281,0.6515634479067615
0.12790147277716357,0.16620508904010256,0.7244222905377726,0.12662591390938838,0.7798068152487557,0.6521951604303636
0.12739114171647758,0.16006635473906364,0.7270652257833217,0.13126828047631464,0.764368276649938,0.6533501995128668
0.127770009532208,0.15476468470458057,0.7302087538488364,0.136476747478239,0.7487424982980498,0.6551309759613634
0.12883679581979457,0.15030590464765817,0.7336603504559714,0.14226593090364625,0.7331414870040284,0.6576482671455778
0.13040859705316013,0.1466983320262581,0.7372043070832394,0.14865000824924823,0.7177444147375988,0.6610161172358568
0.13232859012175904,0.14395117137544208,0.7406126832481814,0.15564308490334938,0.7026896148904739,0.6653460235366406
0.1344713204069882,0.1420722038735942,0.7436574074460762,0.1632590391880266,0.688069647237989,0.6707406080811997
0.13674519496098225,0.1410648935546382,0.7461228860856344,0.1715106226922037,0.6739298320642274,0.6772870034267547
0.1390920472760019,0.1409251030504915,0.7478183866500414,0.18040765209834225,0.6602704244228952,0.685050208526631
0.14148390831957045,0.14163767590726842,0.7485894095561225,0.1899542236626562,0.6470523420474815,0.6940666967100996
0.14391738243538058,0.1431731929545336,0.7483272629185334,0.20014500691603446,0.6342060896408518,0.7043385845260458
0.14640625831698362,0.14548523947767236,0.7469761131354279,0.21096082035367092,0.6216432556213817,0.7158286973168219
0.14897315804059505,0.14850852140006573,0.7445369055345251,0.22236384472715037,0.6092697145934992,0.7284568923953987
0.15164111935970745,0.15215813739675585,0.7410677319188964,0.2342929711956896,0.5969994709424497,0.7420980182850397
0.15442600417201655,0.15633024756906555,0.7366804585130718,0.24665989186322332,0.5847679472647062,0.7565818903560287
0.1573305255314997,0.16090427923309636,0.7315337049032727,0.25934659855690373,0.5725434755946596,0.7716956384790339
0.1603404947163196,0.1657466817936558,0.7258225620809798,0.2722049435007151,0.5603358058914591,0.7871887185743836
0.16342362839583982,0.17071609508800273,0.719765730019622,0.2850588188657339,0.5482006156723124,0.8027807649512273
0.16653095393146516,0.17566964234098997,0.7135910127951793,0.2977093244981009,0.5362392897100052,0.8181722846456735
