x-axis (g),y-axis (g),z-axis (g),x-axis (deg/s),y-axis (deg/s),z-axis (deg/s)
0.8308523797219789,0.7144966254894392,0.5316585655390299,0.19317010632786133,0.6491648137605602,0.3500553003272817
0.8236578990309781,0.7012526587648082,0.5467867885494584,0.18824762078515384,0.6488132792940781,0.35060701200298494
0.8165209486432363,0.6880680045017092,0.5617542121693042,0.18342412920353354,0.648408893699973,0.35115935247962277
0.8094661083025985,0.6749289122628394,0.5764132611162123,0.1788045240600368,0.6479327921226608,0.35170803066567463
0.8025175677969486,0.6618264236482344,0.5906237849255234,0.17448420150474628,0.6473755147647074,0.3522480626809626
0.7956979427929881,0.6487583351040024,0.6042552155259217,0.17054525846821644,0.6467403221555388,0.3527732125846809
0.7890268624610106,0.6357303174866813,0.617188419263939,0.16705361365357618,0.6460451661272159,0.353275543105452
0.7825194861865569,0.622756237106466,0.6293172507457641,0.16405717655768712,0.645323052145439,0.353745138943149
0.7761851158708329,0.6098577715179737,0.6405498169463544,0.16158510016949684,0.6446207179255361,0.35417004563316307
0.7700260615676171,0.5970634449766513,0.650809456471277,0.15964806907305024,0.6439957437687384,0.35453644348232605
0.7640368930094749,0.5844072242561665,0.6600354320766265,0.15823950310609985,0.6435123792789252,0.35482905136452514
0.7582041712111143,0.571926817808474,0.6681833266174484,0.15733750291018964,0.6432365015352455,0.3550317318144497
0.7525067073534519,0.5596618132355536,0.6752251258398441,0.15690733049696828,0.6432302001329004,0.35512824916928004
0.7469163457805003,0.5476517732033294,0.6811489680665774,0.15690420574019914,0.6435465100601108,0.35510311823448504
0.7413992194671892,0.5359343915621148,0.6859585425781165,0.15727620679068344,0.6442247855603691,0.3549424731702183
0.7359173845025865,0.5245437923187302,0.6896721263422589,0.15796708553732677,0.645287133463609,0.3546348853555307
0.7304307087631255,0.5135090362610394,0.6923212627908297,0.15891884414238353,0.6467362133098461,0.35417206452735045
0.7248988715248247,0.5028528846500321,0.6939491057754393,0.16007396068187635,0.6485545766935222,0.3535493885392708
0.7192833263613754,0.49259085682600995,0.694608475046267,0.16137719643729218,0.6507055734075471,0.35276622221839715
0.7135490889720677,0.4827306084713226,0.694359694358457,0.1627769603389415,0.6531357107161693,0.35182600333426595
0.707666232999289,0.4732716487571182,0.6932683070099516,0.16422624419103274,0.6557782267075427,0.3507360918949227
0.7016110078371303,0.4642054065134282,0.6914027835288664,0.16568317332209798,0.6585575393333489,0.34950739625055577
0.6953665296004465,0.4555156467075661,0.6888323497877997,0.16711123991654583,0.6613941668898736,0.3481538045040145
0.6889230361424751,0.4471792279202089,0.6856250688559804,0.1684793001350078,0.6642096877048901,0.34669146158101055
0.6822777355602766,0.4391671786275688,0.6818463048442774,0.16976142162455532,0.6669313177920829,0.34513794051244423
0.6754343115565661,0.4314460549698272,0.6775576810549947,0.17093666609872687,0.6694957331339899,0.3435113609474393
0.6684021754104351,0.42397952599819394,0.6728166179882749,0.17198888358414072,0.6718518429936393,0.34182950890367453
0.6611955709675709,0.41673011545296557,0.6676765001607823,0.17290658203323467,0.6739623246192072,0.34010900975356356
0.6538326447048689,0.4096610137298606,0.6621874761339649,0.1736829195715191,0.6758038483284169,0.3383646020278442
0.6463345872414052,0.4027378619093587,0.6563978463179487,0.17431584780088108,0.6773660444790701,0.3366085533709282
0.6387249363319883,0.39593040360846893,0.6503559413826425,0.1748084142557835,0.67864937916889,0.3348502523890214
0.6310291059992968,0.3892139016966627,0.6441123443294713,0.17516921111410488,0.6796622031992091,0.3330960015351152
0.623274174460278,0.3825702267081637,0.637722265563423,0.17541293637462077,0.6804173099633595,0.3313490267723559
0.6154889279449358,0.37598854233718965,0.6312478467271937,0.17556101379128816,0.680928375935537,0.3296097096389172
0.6077041218610897,0.369465539986013,0.6247601493345326,0.1756421999544304,0.6812066588155893,0.32787603655122755
0.599952888627385,0.3630052072097161,0.6183405814000321,0.17569309233388963,0.681258293020306,0.3261442488143834
0.5922711962980896,0.3566181514443881,0.6120815313318166,0.1757584423876523,0.6810824534868727,0.3244096650616497
0.5846982467490462,0.3503205373510254,0.606086014067774,0.17589117466437212,0.6806705632889876,0.3226676361000477
0.5772766987741117,0.34413272987609633,0.6004661890365695,0.17615201781105014,0.680006607631587,0.3209145809878515
0.570052610952018,0.33807776221147473,0.5953406806606594,0.17660866785282014,0.6790684974474351,0.3191490434107258
0.5630750213004057,0.33217976517846065,0.5908307158840229,0.17733442875674058,0.6778303118658544,0.3173727000172282
0.5563951139020094,0.32646249991618914,0.5870551843298513,0.17840630995728934,0.676265151654915,0.31559124836194796
0.5500649639587255,0.3209481279540163,0.5841248188700359,0.17990260392281246,0.6743482652360624,0.3138151024887672
0.5441358981513982,0.31565633186170317,0.5821357807475733,0.18190001644821194,0.672060072443039,0.3120598297924916
0.5386565521389592,0.3106038670539265,0.5811630070412931,0.18447047440473358,0.6693887130592455,0.31034627411998733
0.5336707467198026,0.30580458352703027,0.5812537328589727,0.18767778534376964,0.6663317879273408,0.3087003271350101
0.5292153341541224,0.3012699088692605,0.5824216309453374,0.19157436511669915,0.6628970370107509,0.30715233220980676
0.5253181828336289,0.2970097350456288,0.5846420137002714,0.19619827781995697,0.6591018047094651,0.30573613130519517
0.5219964696122394,0.2930336057700983,0.5878485150916408,0.20157084161386396,0.6549712686416713,0.30448779359716616
0.5192554339894437,0.2893520632102021,0.5919316128115281,0.20769504011313925,0.6505355425809343,0.303444092585496
0.5170877179557394,0.28597798629992566,0.5967392664709316,0.21455493969924952,0.6458258947588859,0.3026408232901652
0.5154733722284862,0.28292774117946984,0.6020798397082348,0.22211624820303333,0.6408704367143727,0.3021110700138118
0.5143805576798671,0.28022196917728903,0.6077273484083188,0.2303280626499105,0.6356897236925725,0.3018835453658176
0.5137669147179348,0.2778858598509128,0.6134289405787643,0.23912574877154438,0.6302927556628686,0.30198112075188405
0.5135815183529223,0.275948794955058,0.6189143733554371,0.24843478118296036,0.6246738715862754,0.3024196562392739
0.5137672876918866,0.27444330135976036,0.623907117004189,0.25817526125519547,0.6188109854242188,0.30320721377472376
0.5142636801363006,0.2734033130892791,0.6281365925028435,0.2682667320782877,0.6126655213327502,0.3043437037541881
0.51500947617368,0.2728618098850731,0.6313509458224241,0.27863283925430554,0.6061842724635849,0.3058209739626346
0.5159454527276975,0.27284796637069914,0.6333296852585779,0.2892053544437087,0.5993032417018236,0.3076233062281566
0.5170167525608392,0.2733840060863477,0.6338954641613428,0.2999270951068937,0.5919533358912992,0.3097282449672073
0.518174783744686,0.2744820026473105,0.6329242852601261,0.31075334439431707,0.5840675926851996,0.3121076486642429
0.5193785247895386,0.2761409010437977,0.6303534383995316,0.321651500146265,0.575589437777699,0.3147288353864039
0.520595164330839,0.2783440417599234,0.626186563389456,0.3325988558316547,0.5664813169636167,0.31755569070268264
0.5218000647658942,0.2810574565639453,0.620495354549853,0.34357862672904577,0.5567329383358671,0.32054962299739925
0.5229761014600098,0.28422916686206273,0.6134175918524118,0.35457456302762463,0.5463683088150557,0.3236702867762322
0.524112487124072,0.28778965461354766,0.605151390925848,0.3655647135774066,0.5354507665147809,0.32687604589294755
0.5252032387463546,0.2916535950089554,0.595945802705651,0.3765150917468661,0.5240853021077113,0.3301242094269391
0.5262454767005446,0.295722844160049,0.5860881512415353,0.3873741190197741,0.5124176290083793,0.33337113430600923
0.5272377582648357,0.29989057018709,0.5758887588722995,0.39806875536446,0.5006296985825954,0.33657233991277485
0.5281786385219334,0.3040463097990744,0.5656639512638642,0.4085031466274769,0.4889316512182942,0.3396828094715531
