x-axis (g),y-axis (g),z-axis (g),x-axis (deg/s),y-axis (deg/s),z-axis (deg/s)
0.32104335679320717,0.06249718348348488,0.9754048763756419,0.8042425574708719,0.14431891110596182,0.3989180828641172
0.32541719102229216,0.052249027812714795,0.9810653554975741,0.8184523410026815,0.12163769027535931,0.3826046218979472
0.32975495614618633,0.042244621594823735,0.986356562772782,0.8325379693228729,0.09950919933393351,0.3663279517996761
0.3340429656189454,0.03276751374658027,0.9908744889803958,0.8464284497577055,0.07853552769901233,0.35006722957102326
0.3382649488701858,0.02407680740545076,0.994262787667315,0.8600556700300516,0.05926239362898374,0.33381339214432454
0.3424037838732976,0.016402351925150056,0.9962284211405111,0.8733544135714802,0.042156778771626935,0.3175776117750707
0.34644407011753164,0.00994228856417592,0.9965520490941058,0.8862624832949801,0.0275900593706576,0.301397931208121
0.35037529147755814,0.004862764050502153,0.995092682276686,0.8987209031468254,0.01582737097537454,0.2853435751653242
0.3541952055897329,0.001299501254307627,0.9917865856861485,0.9106741448053169,0.007023458368791529,0.26951666107112693
0.35791302441234246,-0.0006391703124561617,0.9866408483917127,0.9220703128537867,0.001224796991065893,0.2540512651646278
0.36155193184268664,-0.0008682680654040559,0.9797224047298327,0.9328612165376488,-0.001622634924656048,0.23911001810005966
0.36515052315146856,0.0006784531249107579,0.9711435699625858,0.943002260068525,-0.0016608753125522146,0.22487858888048812
0.3687628443319099,0.004053243994706172,0.9610453299560848,0.9524520959209966,0.0008960504227394164,0.21155855490096706
0.37245684707404525,0.009298856862556817,0.949579697303716,0.9611720055514972,0.005780430739041215,0.19935924209371406
0.37631124150211737,0.016452480011309403,0.9368924227704485,0.9691249976976616,0.012690153179904734,0.1884891512154168
0.38041090540237593,0.02554887163229609,0.9231072446466265,0.976274643626316,0.021307758203302385,0.17914756749296099
0.3848411758412653,0.03662253253921301,0.9083126872154251,0.9825836987990634,0.03131818950208636,0.1715168882048671
0.3896814885074371,0.04970883147859533,0.8925522023408659,0.9880125887224542,0.04242436198613336,0.1657561059979592
0.3949989266361515,0.06484406379577445,0.8758182041653962,0.9925178606880356,0.05435989236117172,0.1619957659603172
0.4008422844375971,0.08206448084167683,0.8580502933340958,0.9960507204939274,0.06689857338530716,0.16033458321340058
0.40723723453942046,0.10140437275731486,0.8391377186619137,0.9985557824351704,0.07986040584301936,0.1608377760250786
0.4141831159398339,0.12289332141748248,0.8189258922820808,0.9999701608963373,0.09311421949717513,0.1635370468807084
0.4216517348621144,0.14655276466650954,0.7972265675077755,1.0002230225509838,0.10657710629227063,0.1684320384824148
0.4295884070719004,0.1723920295550378,0.7738311125337621,0.9992356999522104,0.12021104925994305,0.1754930090657645
0.4379152816618868,0.20040400344736517,0.7485261709890976,0.9969224412914565,0.13401725472793075,0.18466441527710314
0.44653679011066744,0.23056061995162785,0.721110893757027,0.9931918388985193,0.1480287813338521,0.19586906248535235
0.4553468780754504,0.2628083436013839,0.691414855765889,0.9879489425719356,0.16230210632446065,0.2090124811017572
0.46423751712704364,0.2970638443895069,0.6593157363382233,0.9810980251535272,0.17690827825310804,0.22398721075046568
0.47310787302566176,0.333210061021386,0.6247558416186874,0.9725459290177827,0.19192427713142352,0.2406767180095841
0.48187343589955023,0.37109285946628107,0.5877565820014582,0.9622058853907656,0.20742514107254842,0.25895873288332366
0.4904744010539108,0.41051849933081574,0.548430085756794,0.9500016655584242,0.22347732636709702,0.2787078584642232
0.4988826275995468,0.4512521221036254,0.5069872314751344,0.935871895795156,0.24013365093010802,0.29979738146398327
0.5071065916145457,0.4930174691041981,0.46374151531879354,0.9197743477369599,0.25743003569260425,0.3221002826961451
0.5151938831543911,0.535498019434777,0.41910833237124095,0.9016900041658092,0.27538411267340174,0.3454895110467805
0.523230961039557,0.5783397060642701,0.37359944132505235,0.8816266976633412,0.29399562117960787,0.36983763777193124
0.5313400628829187,0.6211553188761617,0.3278125934609102,0.8596221268378879,0.3132483745980781,0.3950160471043346
0.5396733563087734,0.6635306359729486,0.28241653360077024,0.8357460718655035,0.33311345943437054,0.4208938424623483
0.5484045970880637,0.7050322394672804,0.23813181382415333,0.8101016574182508,0.35355323490522944,0.4473366547159479
0.557718718674437,0.7452168722613863,0.19570808983145846,0.7828255456258264,0.3745256433711609,0.47420553093577367
0.5677999053831849,0.7836420830067202,0.15589878317803266,0.7540869829329108,0.3959883249160868,0.5013560608796231
0.5788187912221286,0.819877794709458,0.11943417766940434,0.7240856705183789,0.41790205632433275,0.5286378670458638
0.5909194745725533,0.8535183271510415,0.08699416245211285,0.6930484759627649,0.44023310514744335,0.5558945458895092
0.6042070454013181,0.8841943143289095,0.05918192601860528,0.6612250515980111,0.46295419951150996,0.5829641064590829
0.6187362895109356,0.9115838956356265,0.0364999344248628,0.6288824700691277,0.486043956258138,0.6096799119529569
0.634502169141908,0.935422532931521,0.019329486001951317,0.596299028040682,0.5094847731521949,0.6358720929112713
0.6514325884512389,0.9555108227845995,0.007915019558268227,0.5637574031880055,0.5332593617713168,0.6613693708349302
0.6693838442782952,0.9717197390653528,0.0023541633152970916,0.5315373767866234,0.5573462610638301,0.6860012101127693
0.6881390453767918,0.9839928574290001,0.002594251826893971,0.4999083542197987,0.5817148115091774,0.7096002054956388
0.7074096642409566,0.9923452775246735,0.008435716817916522,0.46912192905575456,0.6063201711034235,0.7320046121942967
0.7268402705309308,0.996859164116106,0.019542388854114013,0.43940474392972545,0.6310990039277296,0.7530609350851566
0.746016387663412,0.9976760632852381,0.03545834806229874,0.4109519043694889,0.6559664603460817,0.7726265104464823
0.7644753159510012,0.9949863990006662,0.05563055566855143,0.38392120077752717,0.6808149903401298,0.7905720350586456
0.7817196761903317,0.9890167996603886,0.07943610882921912,0.3584283892911377,0.7055153894696673,0.8067840195382555
0.7972333444332517,0.9800161225767561,0.10621261584868821,0.33454377353877796,0.7299202782855327,0.8211671611712106
0.8104993681809949,0.9682412147512773,0.13528991454145634,0.31229031464772394,0.7538699750551551,0.8336466420738555
0.8210193723166146,0.9539435496052566,0.1660211789955329,0.29164347337301505,0.7772004586041773,0.8441703577156098
0.8283338762080082,0.9373578933993574,0.1978114018535364,0.27253295216353585,0.7997528577559524,0.8527110664293578
0.8320428498003521,0.9186940686657442,0.2301413176417003,0.2548464522093969,0.821383673832131,0.8592684221116039
0.8318257373672603,0.8981326888617326,0.2625850574188102,0.2384354872005612,0.8419747708975338,0.8638708117393818
0.8274600781269024,0.8758254412125439,0.29482019645341506,0.22312319907848735,0.8614420804562787,0.8665768709377359
0.8188377630915578,0.8519001061029436,0.3266293640215657,0.20871400112201913,0.8797419834158946,0.8674765012995236
0.8059779020429083,0.8264700450459229,0.35789320466778946,0.19500473311041353,0.8968744644694018,0.8666911710305548
0.7890352522119862,0.7996473995182654,0.3885751774712779,0.18179685884692723,0.9128823840468079,0.8643732553147785
0.7683032022837424,0.7715587634769285,0.4186994057103284,0.16890907918390693,0.9278465694639797,0.8607041739268885
0.7442104326981336,0.7423616736029406,0.44832348478969064,0.15618958934496413,0.9418768649809091,0.8558911188092109
0.7173106031692539,0.7122599566238361,0.47750875463911435,0.1435270968745809,0.9550997618046656,0.8501622381925331
0.6882647605730917,0.681515833678562,0.506290974037269,0.13085965725305734,0.9676437034194695,0.8437602564575881
0.6578166129721356,0.6504567507621524,0.5346545312450307,0.11818039949716302,0.9796235702777656,0.8369346547790355
0.62676136169595,0.6194752104457302,0.5625132307898062,0.10553932268902483,0.9911261287660077,0.8299327050346753
0.5959093891512811,0.5890204310763913,0.5897002714905992,0.09304055921153401,1.0021983239855712,0.8229898210622205
