x-axis (g),y-axis (g),z-axis (g),x-axis (deg/s),y-axis (deg/s),z-axis (deg/s)
0.8453123520722998,0.8717858714930148,0.28865630588781876,0.33831954082255455,0.5714368258968839,0.32465595126229196
0.841311807951054,0.860347738620273,0.30959820848679953,0.3243872959197506,0.5808884106556139,0.32644902869875664
0.8371571297455354,0.8488273143308535,0.3303327971271668,0.31065229976004266,0.590310122872663,0.3282611722858243
0.8326450935882624,0.837054561137567,0.3507158242730241,0.29724737187256656,0.5996799232025896,0.33012369108404926
0.8276021539797392,0.8248850704141912,0.3706107008573169,0.28429017984783156,0.6089708313636426,0.3320636561486935
0.821895008709425,0.8122082136197466,0.3898916650093428,0.2718767207050618,0.6181473240173532,0.3341022590892627
0.8154373106244324,0.7989518603138147,0.4084468350795589,0.26007629390602444,0.6271625497065785,0.3362536289249304
0.8081922031137984,0.7850835645982934,0.4261809360437249,0.2489284181975025,0.6359566638951613,0.33852416036841554
0.8001707764848406,0.7706084449766257,0.44301749476059976,0.2384419396916365,0.6444564848443192,0.3409123758943167
0.791426925043493,0.7555642593771656,0.4589003305123531,0.228596360507593,0.6525765537519487,0.3434093105745612
0.7820493895602889,0.740014382502306,0.4737942195375872,0.21934521146256283,0.660221560806769,0.3459993741218409
0.7721519699531147,0.72403951267638,0.4876846795471851,0.21062111941350697,0.6672899829423875,0.3486616112684397
0.7618629762205571,0.7077289667468657,0.500576894149456,0.20234209417825444,0.6736786784567915,0.35137125252899204
0.751314953951018,0.6911723707507421,0.512493868654913,0.19441848884667734,0.6792881058924859,0.3541014256612228
0.7406355883785898,0.6744524349364824,0.5234739694393061,0.18676007151599902,0.6840277850164814,0.35682488643210836
0.7299404813784368,0.6576393332706318,0.5335680421912548,0.17928268127015518,0.6878215992481815,0.35951562741912996
0.7193282379601351,0.640787011054111,0.5428363257340121,0.17191401760223413,0.6906125517342221,0.362150236130153
0.7088780235584093,0.6239315409530191,0.5513453763504317,0.16459821883154138,0.6923666293072748,0.36470889797651135
0.6986494900575559,0.6070914567398757,0.5591651941792284,0.15729900864176588,0.6930754955134365,0.3671759735549168
0.6886847420506766,0.5902698308765418,0.5663667022915247,0.15000131813592335,0.6927578197935006,0.3695401201752861
0.6790118440744706,0.5734577377623672,0.5730196763224146,0.14271141255258865,0.6914591476549813,0.3717939707614375
0.6696492658027043,0.5566386651465932,0.5791911648401411,0.13545565789103203,0.6892503186093439,0.37393342497653953
0.6606106290560083,0.5397934032291338,0.5849443849183843,0.12827814656515044,0.6862245371357207,0.375956643640003
0.6519091544109118,0.5229049514818723,0.590338029860563,0.1212374589529123,0.6824932899204884,0.37786286471597885
0.64356129648568,0.5059630309305584,0.5954258915503128,0.11440286802231152,0.6781813741465824,0.37965117478551585
0.6355891914166495,0.4889678658405716,0.6002566814615369,0.10785029808177503,0.673421352181233,0.3813193725487821
0.6280217006421362,0.4719329933882017,0.6048739328806644,0.10165832897765215,0.6683477748980424,0.3828630504159488
0.6208940040172476,0.4548869626010994,0.6093158812696651,0.09590449798029799,0.6630915182039521,0.3842749977940227
0.614245855479599,0.43787388487548107,0.613615247065444,0.0906620982795293,0.6577745561047932,0.3855449975653185
0.6081187513013433,0.4209528893873672,0.6177988813907255,0.08599761097184534,0.652505451492432,0.38666004867694426
0.6025523631998069,0.40419661134389906,0.6218872752160568,0.0819688421755679,0.6473757868162683,0.3876050064699366
0.597580649229382,0.3876888951973076,0.6258939713909326,0.0786237736073423,0.6424576859655268,0.388363592290178
0.5932280718932452,0.37152192697523284,0.6298249520104551,0.076000078117336,0.6378025016713688,0.388919688734353
0.5895063270467473,0.3557930203077292,0.6336780970601975,0.07412520500832578,0.6334406653125487,0.389258809702651
0.5864119244236914,0.34060127199357093,0.6374428216775259,0.07301690619296636,0.6293826236575466,0.3893696174963691
0.5839248694244209,0.3260442789114009,0.6410999975751712,0.07268405506874863,0.625620724600175,0.38924535370182883
0.5820085864592228,0.3122150734805767,0.6446222494892094,0.07312760602416526,0.6221318651304262,0.3888850566150381
0.5806111077062044,0.2991993947462042,0.6479746914994337,0.07434155326061141,0.6188806821458733,0.3882944544982789
0.579667438383811,0.2870733713000482,0.6511161333015356,0.07631377160185468,0.6158230513493806,0.38748644914007585
0.5791029100998615,0.27590165476326356,0.654000746266248,0.07902665667544488,0.6129096610434467,0.38648113548718466
0.5788372551471493,0.2657360115360805,0.6565801370484027,0.08245752395602393,0.6100894444206812,0.385305337655247
0.5787890820309142,0.2566143578327366,0.658805736308588,0.08657877167279054,0.6073126831564711,0.3839916764868175
0.5788804087425681,0.24856020926229078,0.6606313752594832,0.09135785710932326,0.6045336331747795,0.38257721633829883
0.5790409155317308,0.2415825107887298,0.6620158962843111,0.09675717486753453,0.6017125665044823,0.3811017667398484
0.5792116110858427,0.235675814210219,0.6629256282257535,0.10273395497671414,0.598817167434477,0.3796059364066327
0.5793476610927166,0.23082077602676804,0.6633365538113446,0.10924031466390223,0.5958232635296145,0.37812905189327467
0.5794202006491647,0.22698495603180116,0.6632360069470452,0.11622359749693273,0.5927149101728543,0.3767070607427304
0.5794170354094492,0.22412390346100064,0.6626237612642276,0.12362711609288642,0.5894838798637251,0.3753705396106442
0.5793422237630013,0.22218252067716976,0.6615124073928313,0.1313913798158475,0.5861286342405894,0.3741429222733404
0.579214616696554,0.22109669239221943,0.6599269630354132,0.13945583870770545,0.5826528782082627,0.37303905160009476
0.5790655067801489,0.22079516039113536,0.6579037141752953,0.14776111282839166,0.5790638125856683,0.3720641444809142
0.5789355972475801,0.22120160965975674,0.65548834396956,0.15625160730429852,0.575370215285351,0.3712132402428186
0.5788715420310668,0.22223691276115237,0.652733463703199,0.16487834404851404,0.5715804917132584,0.3704711819634748
0.5789223251057376,0.22382145721941935,0.6496957128850579,0.1736017785390922,0.5677008425841361,0.3698131567893328
0.5791357417615399,0.22587745828548694,0.6464326383927059,0.18239432176580272,0.5637337005149916,0.3692057962033196
0.5795552166715661,0.2283311400191318,0.6429995911351855,0.19124226072475414,0.5596765835690525,0.3686088104131391
0.5802171471382912,0.23111465455505387,0.6394468893889566,0.20014677190131602,0.5555215018252966,0.3679771029689575
0.5811488997758204,0.23416760597709405,0.6358174883151577,0.20912375556458257,0.5512550294778299,0.36726328292799276
0.5823675216279315,0.23743805408229,0.6321453641953649,0.21820228651207352,0.5468591179828318,0.36642046330643574
0.5838791595980357,0.24088289620743658,0.6284547703360908,0.22742157822215686,0.5423126747048056,0.3654052076293539
0.5856791223444957,0.24446756266496805,0.6247604519242965,0.23682648775410436,0.5375938675365293,0.36418046306571134
0.5877524729048432,0.24816501209696654,0.6210688237452393,0.24646173999303467,0.5326830424245435,0.36271830134586525
0.5900750130603275,0.2519540744050278,0.6173800237090585,0.2563652101075444,0.5275660632108727,0.36100228013398267
0.5926145143615995,0.25581725631532987,0.6136906641544387,0.26656075730219103,0.5222378092684585,0.3590292405273825
0.5953320656171203,0.25973819195842596,0.6099970205314902,0.27705123373472423,0.5167055050266862,0.3568103732937056
0.598183439444091,0.2636989806682717,0.606298332368342,0.28781238151969807,0.510991516151579,0.35437141896299357
0.6011204254459496,0.26767769836685357,0.6025998530873727,0.29878836058815966,0.5051352388153332,0.35175191534292116
0.6040921267572369,0.2716463892144026,0.598915280627659,0.30988960629287,0.4991937383731087,0.3490034691297744
0.60704626075313,0.2755698334055105,0.5952682349580347,0.3209935887189726,0.49324086612529705,0.34618710278896664
0.609930534089182,0.27940533983729443,0.5916925230621298,0.33194883376233797,0.4873646979039597,0.3433698084750472
