x-axis (g),y-axis (g),z-axis (g),x-axis (deg/s),y-axis (deg/s),z-axis (deg/s)
0.6492151793267548,0.6361728320370287,0.5966762387031386,0.6946024281513726,0.38072617790720037,0.24411213703195483
0.6604116035676012,0.6507366916038021,0.5963638406105354,0.6886346208828961,0.3840451357172077,0.24666730787995542
0.6714600367521821,0.6651750827353079,0.5959984222219182,0.6826881531026466,0.38745335254745183,0.24918938910325128
0.6822007174789283,0.6794444082451048,0.5954593218279921,0.676737091913821,0.39108932768697385,0.25168802603767965
0.6924827173898535,0.6935046980553302,0.5946334456081348,0.6707590426637063,0.3950761300025121,0.25417537576333316
0.7021690983088651,0.7073207006827478,0.5934186085847709,0.6647348880799244,0.3995152394742863,0.25666754051841106
0.7111416414769762,0.7208628474042836,0.5917262184318889,0.6586479261083382,0.4044820339287014,0.25918566336602644
0.719304959988665,0.7341078800311946,0.5894833639886896,0.6524826078473007,0.4100230878295293,0.26175646446897244
0.7265898196697013,0.7470389873854177,0.5866343838125788,0.6462231038403201,0.4161553355162905,0.26441207088565516
0.7329555143865826,0.7596453673357991,0.583141987231579,0.6398519278504029,0.42286704055729013,0.2671890809589233
0.7383911699663296,0.7719212093465967,0.5789879859007552,0.6333488240196322,0.4301204110727595,0.27012689466390494
0.7429158869401186,0.7838641664583479,0.5741736730081302,0.6266900803439612,0.43785561287459207,0.27326542350556654
0.7465776759066524,0.7954734469257344,0.5687198648979638,0.6198483747110669,0.44599586245555567,0.2766423597183153
0.749451189265281,0.8067476984426885,0.5626666000836471,0.6127931962947893,0.45445323379307695,0.2802902293537533
0.7516343073167839,0.8176828789259409,0.5560724764358177,0.6054918218561727,0.46313478895695076,0.28423347493153245
0.7532436924147206,0.8282703069204047,0.5490136005995463,0.5979107697421229,0.4719486434659805,0.28848581089504205
0.7544094785807635,0.8384950639586521,0.5415821251194187,0.5900176090732965,0.48080960238194664,0.2930480715749612
0.7552693121694505,0.8483348846192846,0.5338843580305956,0.581782971073307,0.489644049725994,0.2979067307402035
0.755961998316549,0.8577596227219737,0.5260384457024592,0.573182595189286,0.4983938378996605,0.30303321909110453
0.7566210350396183,0.8667313296875955,0.5181716508198162,0.5641992443118443,0.5070190001547346,0.30838410655653087
0.7573683297414504,0.8752049290444106,0.5104172715272737,0.5548243392357132,0.5154991918238553,0.3139021551495589
0.7583083902119125,0.8831294241648713,0.5029112727738869,0.5450591895956409,0.523833848843336,0.31951818998901477
0.7595232638071532,0.8904495383110359,0.49578872463206153,0.5349157332679353,0.5320411292606313,0.3251536846348669
0.7610684651583378,0.8971076594235755,0.4891801628384686,0.5244167348267313,0.5401557699447279,0.330723914867775
0.7629700863790116,0.9030459479621545,0.48320800227818345,0.513595432463553,0.5482260428597513,0.3361415042311489
0.7652232270089979,0.9082084644053597,0.4779831431856197,0.5024946587317558,0.5563100307589209,0.34132016589443054
0.7677918172056555,0.9125431826061201,0.47360191140956653,0.49116549123883024,0.5644714603368787,0.34617843874454074
0.7706098407121743,0.9160037741392346,0.4701434675291724,0.4796655135219651,0.5727753326032354,0.35064322048388324
0.7735838977503068,0.9185510746299745,0.46766780469765507,0.4680567832044052,0.581283577686363,0.35465291583351893
0.776596985885902,0.920154173149509,0.4662144320951249,0.45640361428523185,0.5900509375992731,0.35816004227757664
0.7795133223592052,0.9207910974555894,0.46580181057130104,0.44477028376798705,0.5991212494064282,0.36113316745757296
0.7821839869822069,0.920449098705491,0.4664275707712407,0.4332187708295665,0.6085242665211912,0.3635580894799769
0.7844531323257286,0.9191245671681423,0.46806950361302435,0.4218066305329284,0.6182731209913137,0.36543821207108035
0.7861644885425836,0.9168226337123873,0.47068727076060785,0.4105850947808633,0.6283624973360044,0.36679410866729795
0.7871678839514316,0.9135565291704567,0.4742247414264456,0.39959748165907344,0.6387675605650759,0.3676623111119804
0.787325508827147,0.909346784205524,0.4786128243917948,0.3888779810951956,0.6494436581560874,0.368093397618911
0.7865176674665563,0.904220355577589,0.48377263350909094,0.37845087013433676,0.6603267976844225,0.3681494891346996
0.7846477908216096,0.8982097606070553,0.4896188038803953,0.3683301951237363,0.6713348873414798,0.3679012914474948
0.7816465168364478,0.8913522904600854,0.4960627666233507,0.3585199405902564,0.6823697140130802,0.367424840887146
0.7774746860131139,0.883689355296841,0.5030157941280308,0.3490146854553154,0.6933196209604482,0.36679812315978766
0.7721251436477421,0.8752659914277504,0.5103916455010016,0.33980072646034576,0.7040628325929307,0.366097737144407
0.7656232858040123,0.8661305339584078,0.5181086729088061,0.3308576265184951,0.7144713559107204,0.3653957682749334
0.7580263318936953,0.8563344299728176,0.5260912920350417,0.32216012275012834,0.7244153661698012,0.3647570199366398
0.7494213515336909,0.8459321395363318,0.5342707710069008,0.3136803061687491,0.7337679582712278,0.36423672718360955
0.7399221163246383,0.8349810474615236,0.5425853481300105,0.3053899637038441,0.7424101163220569,0.363878846608605
0.7296648878532183,0.8235412908225612,0.5509797451027442,0.2972629551355403,0.7502357236890983,0.3637149813511313
0.7188032913034993,0.8116753985306404,0.559404194221635,0.2892774844317172,0.7571564074116951,0.36376396326609634
0.7075024594216887,0.7994476424595662,0.5678131406517991,0.28141811882364237,0.7631059874173289,0.3640320775479734
0.6959326639939168,0.786923016521833,0.5761638098222166,0.2736774114846923,0.7680442863047305,0.3645138808899813
0.6842626809858754,0.7741657915892826,0.5844148420313214,0.2660569962791002,0.7719600532437284,0.3651935345799685
0.6726531601270066,0.7612376397032182,0.5925251893250876,0.2585680465338598,0.7748727691231478,0.3660465504192337
0.6612502884867385,0.748195378461274,0.6004534431442353,0.2512310241821035,0.7768331319749436,0.3670418311098409
0.6501800483359652,0.7350884518489725,0.6081577164155468,0.2440746900032758,0.7779220731843233,0.3681438783274997
0.6395433695963895,0.7219563313807564,0.6155961437925258,0.23713439805586495,0.7782482256967652,0.369315041035329
0.6294124633817789,0.7088260839638174,0.6227279934438077,0.23044975468498446,0.7779438530605935,0.37051768311720223
0.6198285924628691,0.6957104020485034,0.6295153093720862,0.22406178059638163,0.7771593483328516,0.37171616209531283
0.6108014843709253,0.6826064186374953,0.6359249319216757,0.21800976849932008,0.7760565182406817,0.3728785282140326
0.6023105217930473,0.6694956263548058,0.6419306834874103,0.21232807329432826,0.7748009724050525,0.3739778740356588
0.5943077530691806,0.6563451793502956,0.6475154637641195,0.20704310118981123,0.7735540305574063,0.3749932874208723
0.5867226553383356,0.6431107753517512,0.6526729804357071,0.2021707733870806,0.7724646327069669,0.3759103840188393
0.5794684591399472,0.6297411924682254,0.6574088514958419,0.1977147250333417,0.7716617788131305,0.37672141807803744
0.5724497137121677,0.616184395879375,0.6617408564964858,0.1936654586365113,0.771248027871146,0.3774249917184955
0.565570647033139,0.6023949430830281,0.6656981850668235,0.19000060296407878,0.7712945462058435,0.3780254022792825
0.5587437659939639,0.5883422180949432,0.6693196278915947,0.1866863362727626,0.7718381095177624,0.37853168469005677
0.5518980631766767,0.5740188350238711,0.6726507705032083,0.18367992227071256,0.7728803354622037,0.37895642082356223
0.544986160468733,0.5594483936980069,0.67574037315048,0.1809331873505252,0.7743892605653373,0.379314400214808
0.5379897372600182,0.5446916703232701,0.6786362375807187,0.17839665002073923,0.7763031889889901,0.3796212259103062
0.530922669771143,0.5298503096582902,0.6813809591930582,0.17602391189678207,0.778536546914079,0.3798919647298516
0.5238314505149715,0.5150671731660638,0.684008025857867,0.17377584885412306,0.7809872937630283,0.38013994170949217
0.516792658904421,0.5005227038094764,0.6865387393701443,0.17162411513084513,0.7835452898076234,0.3803757725011187
