x-axis (g),y-axis (g),z-axis (g),x-axis (deg/s),y-axis (deg/s),z-axis (deg/s)
0.40514451025677745,0.15682886395539364,0.6725563591122277,0.7721334690025354,0.32498060312218946,0.3628405922972086
0.4090447567630034,0.16269267838864132,0.6774177371907681,0.772420451538605,0.31323603987573384,0.36196659183071206
0.4131427069080211,0.16864317063075324,0.6823191135578486,0.7727214245782633,0.30179565382469925,0.36117502027941945
0.4176796465181475,0.1748320277127553,0.6873399938406749,0.7730539327403314,0.290947310269857,0.36049156686652645
0.42286365223794814,0.1813922554568671,0.6925478441004942,0.773432964987308,0.28094510917037574,0.3599292240841119
0.4288555137518942,0.18843152629347548,0.6979912696166002,0.7738698237551094,0.2719988442172127,0.3594862860579275
0.4357585710340365,0.1960277648514619,0.7036948059391086,0.7743713136360115,0.264267197055341,0.3591461187168252
0.4436130706003321,0.20422709304004874,0.709655641461407,0.7749392978851765,0.2578550177450742,0.3588788715000051
0.45239524395676084,0.21304407498773412,0.715842394497478,0.7755706331003823,0.2528146593995003,0.35864508367077486
0.4620209208017754,0.2224640430333433,0.7221958809162662,0.7762574552964722,0.24915097301246833,0.35840092368930526
0.47235314466172496,0.23244716012559416,0.7286316504158643,0.7769877582131703,0.24682926445883976,0.3581046121772113
0.48321298605846813,0.24293378797007056,0.7350439537468214,0.777746180223461,0.24578529619145553,0.3577234379862493
0.4943925643215946,0.2538506859316496,0.7413107359016782,0.7785149017207227,0.24593629620790597,0.3572406966779851
0.5056692000080448,0.2651175608628555,0.7472992312617399,0.7792745511956405,0.24719191953997205,0.35666186802805666
0.5168196229461381,0.2766535173346769,0.7528717603419957,0.7800050250042921,0.24946418546151358,0.3560194033775918
0.5276332464027306,0.28838301375827624,0.7578913846496546,0.7806861416729904,0.25267557120265,0.35537560749252595
0.5379236708257698,0.3002410041638638,0.7622271546109506,0.7812980742991971,0.25676465908390494,0.354823260348866
0.5475377828426019,0.31217702949216963,0.7657587732490925,0.7818215315342671,0.261688984863408,0.35448381542026824
0.5563620470039586,0.32415810849013443,0.7683805838130324,0.7822376859574323,0.26742499687312987,0.3545032141200319
0.5643258294392545,0.33617036038548115,0.7700048632333536,0.7825278756811513,0.27396528640178897,0.35504555246174035
0.5714018255824139,0.3482193648336742,0.770564458118085,0.7826731284305707,0.281313471509463,0.35628500879612596
0.5776038719966144,0.3603293263503968,0.7700148320353553,0.7826535752953139,0.2894772952002588,0.3583965767634642
0.5829825914742314,0.37254115938543086,0.768335601217033,0.7824478326477039,0.29846062551443303,0.36154623558579163
0.587619440848096,0.38490964656332105,0.765531622621986,0.7820324347767733,0.3082551150481403,0.36588122542597196
0.5916197960355245,0.3974998476204016,0.7616336680450252,0.7813813966235038,0.3188322901310481,0.3715210784953912
0.5951057166476816,0.41038295199968033,0.7566986770100237,0.7804659761752081,0.3301367982327454,0.3785499911252012
0.5982089852466056,0.4236317758954831,0.7508095370001779,0.7792546905821436,0.34208145164006515,0.38701101613231054
0.6010649204415587,0.4373161065674292,0.7440742999127044,0.777713620229496,0.3545445735684359,0.3969024192873961
0.6038073287318871,0.45149809433588617,0.7366247157507801,0.7758070123936958,0.3673699886147362,0.4081763908927072
0.6065648007094822,0.4662278866160938,0.7286139545427225,0.7734981724203804,0.3803698128298088,0.4207401461205828
0.6094583884629908,0.4815396888195022,0.7202133995439101,0.7707506072980843,0.3933300004078222,0.43445929776259745
0.6126005392123248,0.49744842358321584,0.7116084308821656,0.7675293657209364,0.4060184052608576,0.4491632525316807
0.6160950212580445,0.5139471418420513,0.7029931783394208,0.7638025017395652,0.41819492803146335,0.46465227471163284
0.6200374761613331,0.5310053158478653,0.6945643016691259,0.7595425771597347,0.42962315383148286,0.4807057835848108
0.6245161761669968,0.5485681146011715,0.6865139509776776,0.754728111907824,0.44008275419952925,0.49709140563727633
0.6296125641379963,0.5665567259069528,0.6790221603515767,0.7493448921806171,0.4493818384830671,0.5135742883800842
0.6354012051736574,0.5848697466307181,0.6722490256061933,0.7433870533968289,0.4573684034219653,0.529926196967131
0.6419488794078396,0.6033856147257676,0.6663271014340082,0.7368578683067188,0.4639400509577205,0.5459339534013923
0.6493126835618309,0.6219660051033338,0.6613545140337408,0.7297701890934641,0.46905122564406315,0.5614068359863246
0.657537169446142,0.640460059130759,0.6573893131842896,0.7221465144145702,0.47271736276752724,0.5761826286187302
0.6666507124689571,0.6587092678621865,0.6544455753168502,0.7140186761791243,0.4750155300221565,0.5901320906745138
0.676661452851257,0.6765527858526523,0.6524917119066386,0.7054271642893273,0.4760813781775623,0.6031617043681297
0.6875532682044413,0.6938329194786828,0.6514513344984442,0.6964201284164223,0.47610247411874057,0.6152146440465361
0.6992823031044172,0.7104005146517414,0.6512068820005419,0.6870521121798071,0.47530835396672155,0.6262699980277936
0.7117745890832002,0.726119966469789,0.6516060348499245,0.6773825853857975,0.4739578837589993,0.6363403558718888
0.7249252332960437,0.7408735893587685,0.6524707355975939,0.667474343506974,0.4723247292462732,0.6454679501140999
0.7385995393524366,0.7545651208026726,0.6536084211257472,0.6573918404718704,0.4706818954511165,0.6537196091651762
0.752636259678894,0.7671221834049352,0.6548248652714989,0.6471995121564946,0.46928638525266847,0.6611808347115742
0.7668529814523363,0.7784975956711446,0.6559378504349055,0.636960135666092,0.46836503444670735,0.6679493596726159
0.7810534378859826,0.7886694969691818,0.6567907507795618,0.6267332561779966,0.46810250525988756,0.6741285685597106
0.795036335629847,0.7976403308649874,0.6572650339010048,0.6165737017271221,0.46863226526791435,0.6798211680080549
0.8086051188284921,0.8054348070284286,0.6572906847691051,0.6065301996932033,0.47003115535588913,0.6851234788915657
0.8215779695097031,0.8120970286396013,0.6568536327501799,0.5966441091378581,0.4723178763587231,0.6901206813553149
0.8337972859447459,0.8176870237318336,0.6559994208243092,0.5869482917104376,0.4754554217447557,0.6948832803612462
0.8451378923909244,0.8222769503836561,0.654832590097989,0.5774661602932194,0.47935717840903547,0.699464973913341
0.8555133149504871,0.8259472540307233,0.6535115496725639,0.5682109668735983,0.48389613514749114,0.7039020031766223
0.8648796018131152,0.8287830394330721,0.6522390425077378,0.5591854155626773,0.48891640275807735,0.7082139496605234
0.8732363583669356,0.8308708813372001,0.6512486771250938,0.5503817079837837,0.494246081116365,0.7124058279836227
0.8806248904334444,0.8322962402323907,0.6507883438193303,0.5417821402244992,0.4997104214573626,0.7164712135015093
0.8871235815022918,0.8331415784477395,0.6511016415942913,0.533360366802348,0.5051442339564811,0.7203960530371452
0.8928408512783267,0.8334851943277148,0.6524086780790592,0.5250834220804915,0.5104025814302241,0.7241627445766167
0.897906233903547,0.833400716371567,0.654887742383068,0.5169145396530994,0.5153689718665307,0.7277540470356275
0.9024602593338782,0.8329571330952862,0.6586593695908356,0.5088167347678682,0.5199605008757401,0.7311564002212324
0.9066439099118456,0.8322191852510061,0.6637742035082691,0.5007570171273411,0.5241296795599378,0.7343623000809602
0.9105884510625066,0.8312479205735906,0.6702058203369644,0.49271098911789457,0.5278629890650064,0.7373714824876673
0.9144064005021363,0.8301012107265221,0.6778493113728422,0.4846674698580751,0.5311765032358692,0.7401908119257721
0.9181843092394586,0.828834056006241,0.6865259614286263,0.47663268455892543,0.5341091881369726,0.7428329358574702
0.9219778882104217,0.8274985528727887,0.6959938371664923,0.46863349030271756,0.5367146964191829,0.7453139328744107
0.9258098368721165,0.8261434665996366,0.7059635614160943,0.4607190928335872,0.5390526042923455,0.7476503313795713
0.9296705255310193,0.8248134276547221,0.7161180477565858,0.4529607615557365,0.5411800738412825,0.7498559829681526
