x-axis (g),y-axis (g),z-axis (g),x-axis (deg/s),y-axis (deg/s),z-axis (deg/s)
0.6749329525566916,0.37998472415349854,0.6221918012870506,0.8143103156935914,0.09797387951333814,0.12706404038282698
0.6860348871588756,0.3943003372462696,0.6188786540090159,0.8137132814809328,0.11117418615182786,0.1292153400937604
0.6971444428528256,0.4086246448137395,0.6155928440504562,0.8130524038898264,0.12431554777504163,0.1314115515588129
0.7083317814959517,0.42304813797886587,0.6122936992237417,0.8122370687546634,0.13743284863077693,0.13372583945046598
0.7196539474945478,0.4376438293969311,0.6089399547218367,0.8111866883405789,0.1505553232794877,0.1362216567587612
0.7311494326708023,0.452461723550753,0.6054879451838572,0.8098330518746761,0.1637042591937572,0.1389494839490803
0.7428345789522066,0.4675258225489801,0.6018898753556551,0.8081215358424318,0.17689173445043213,0.14194483439181985
0.7547019666552394,0.48283371167129346,0.598092537728919,0.8060112121134386,0.1901202785271803,0.14522757841826608
0.7667207601842277,0.4983585330314694,0.5940367729229381,0.8034739710810401,0.20338326795139547,0.14880251161318503
0.7788388240235911,0.5140529543401249,0.5896578647661701,0.8004928403924277,0.21666582842511858,0.15266098428500385
0.7909862933246051,0.5298545902841908,0.5848869409928803,0.7970597237897583,0.22994601222376665,0.15678332917379134
0.8030801940383674,0.5456922470217963,0.5796533266727382,0.7931728072664772,0.24319604957311441,0.16114177939015423
0.8150296614612462,0.5614923389361177,0.5738876844445625,0.788833881227964,0.2563835263896887,0.16570355953335095
0.826741302712592,0.5771848674879566,0.5675256846384592,0.7840458093786532,0.2694724067575126,0.17043385683274156
0.8381242836687717,0.5927084454334522,0.560511887670913,0.7788103407712209,0.28242388486960923,0.17529842958272418
0.8490947869520231,0.6080139823411693,0.5528034953170101,0.7731264149932069,0.2951971073271344,0.18026567855196005
0.8595795756321603,0.623066803344149,0.5443736374959474,0.7669890565813494,0.30774984490536106,0.1853080840083036
0.8695184975261478,0.6378471358394159,0.5352139044036819,0.7603888983753009,0.32003920904692545,0.19040298734080635
0.8788658677762375,0.6523490528162423,0.5253359044964289,0.7533123193609652,0.33202250215826473,0.19553276402663625
0.8875907641336952,0.6665780934000816,0.5147717189515072,0.7457421347388712,0.3436582654600242,0.2006844878373097
0.8956763529746925,0.6805478811105407,0.5035732233375695,0.7376587377382496,0.354907549489138,0.20584922096065017
0.9031184292690817,0.6942761222306165,0.49181034734099,0.7290415662526916,0.36573538765879215,0.2110210797966092
0.9099233972148534,0.7077803886358554,0.4795684339819558,0.7198707536799531,0.3761124100814279,0.21619622248916412
0.9161059386753315,0.7210740733646787,0.4669449325662554,0.7101288222063739,0.38601649977447244,0.22137188460545001
0.921686614338375,0.7341628583613881,0.45404570840181363,0.6998022869196,0.39543437122918085,0.22654555798379808
0.9266896196661445,0.7470419599261385,0.440981273290395,0.6888830584428366,0.4043629446323632,0.23171436966832598
0.9311408775632094,0.7596943277272235,0.4278632329408702,0.6773695575716919,0.4128103978289951,0.23687467825658579
0.9350665966582772,0.7720898775457402,0.41480121241219337,0.6652674847258514,0.42079680022159777,0.24202186877791068
0.9384923633183632,0.7841857455416216,0.40190046260536766,0.6525902170414649,0.42835426436661383,0.2471502984338096
0.9414427725517772,0.7959274707593126,0.3892602757840197,0.6393588341214113,0.4355265872568038,0.2522533270340094
0.9439415434008182,0.8072509488966745,0.37697325355408384,0.6256017978910678,0.44236838923914557,0.257323359245035
0.946012013499147,0.818084957776643,0.3651253847327749,0.6113543314221448,0.4489437898742884,0.2623518309033897
0.9476778696095058,0.8283540347620182,0.3537968110196405,0.5966575554322339,0.45532468363653406,0.26732908737511096
0.9489639494249299,0.8379814874739938,0.34306309246994426,0.5815574495119695,0.46158869255125173,0.27224412589601144
0.9498969464706603,0.8468923385471027,0.3329967381952385,0.5661037085166184,0.4678168776658442,0.27708420282023266
0.9505058646343938,0.8550160382127789,0.3236687443946613,0.550348563803639,0.4740912881293667,0.2818343371058087
0.9508220999628113,0.8622888198028494,0.31514988360278057,0.5343456349946625,0.4804924182254196,0.2864767694688145
0.950879071531187,0.8686556171288728,0.30751151563298285,0.5181488714753303,0.4870966322128523,0.2909904590259312
0.9507113757165021,0.8740715038617366,0.30082573975450433,0.5018116344725663,0.49397360760559195,0.29535071310877353
0.9503534934994677,0.8785026492210039,0.29516477500062915,0.48538596053316424,0.5011838424143867,0.2995290493161403
0.9498381326044661,0.8819268086082424,0.29059953552268564,0.46892203557833156,0.5087762727724041,0.303493380833761
0.9491943298129483,0.8843333810878692,0.2871974538838093,0.4524678952783234,0.5167860548745062,0.3072085967444685
0.9484454690671338,0.8857230684022748,0.285019689855208,0.4360693521363503,0.5252325784313108,0.31063757969121236
0.9476073849164335,0.8861071647230333,0.28411793828574844,0.4197701324434917,0.5341177956327859,0.3137426660183872
0.9466867172088456,0.8855064961463871,0.28453111003739584,0.4036121875994306,0.5434249665500391,0.3164875113654954
0.9456796624788368,0.8839500184668229,0.28628219879632555,0.3876361251456928,0.5531179348879404,0.3188392811368091
0.9445712329707464,0.8814730757052338,0.2893756591182118,0.3718816867795791,0.5631410527990589,0.320771044124655
0.9433350900468086,0.8781153245274211,0.2937956044276696,0.3563881857147889,0.573419866322349,0.32226421262995564
0.9419339703733042,0.8739183442943566,0.2995050870124944,0.3411948065350181,0.5838626512427126,0.3233108472302225
0.9403206767224717,0.8689229805955239,0.30644664677346645,0.32634066978005954,0.5943628516957333,0.32391563187108846
0.9384395661343121,0.8631665111555764,0.31454421546252437,0.3118645732894474,0.6048024215110298,0.3240973273860855
0.9362284411602187,0.8566797740100919,0.32370634461702014,0.2978043444957446,0.6150560039909782,0.32388953005889604
0.9336207378606074,0.8494844534735168,0.3338305968563952,0.2841957729578107,0.62499581437158,0.32334059644261925
0.9305479078737753,0.84159077224033,0.34480881201466546,0.2710711394673695,0.6344970169714318,0.32251264507986455
0.9269419095392709,0.8329958790470522,0.3565328434441487,0.25845741425242613,0.6434433233374336,0.32147960746221466
0.9227377507587897,0.8236832411392453,0.3689002680443745,0.24637425744091596,0.6517324861193184,0.32032437072061754
0.9178760581083438,0.81362334028018,0.38181951809655373,0.23483201358856057,0.659281332962371,0.319135128256565
0.9123056755535726,0.8027759228842692,0.39521387430775046,0.2238299409343663,0.6660299810440825,0.3180011260932487
0.9059863145573736,0.7910939647500843,0.4090238053974994,0.21335494670177746,0.6719448995539308,0.31700805598036214
0.8988912788040357,0.7785293786916602,0.42320724398220505,0.20338110408284202,0.6770205453357157,0.3162333950702931
0.8910102665346358,0.7650403241374681,0.43773755026741973,0.19387019780586012,0.6812793839999742,0.31574202068187396
0.8823522099137387,0.7505997821549456,0.4525991270465876,0.1847734792815103,0.6847702199288038,0.31558243276719744
0.8729480460389695,0.7352048536751318,0.46778089820724505,0.17603470890019232,0.6875648857547727,0.3157838933331092
0.8628532345110923,0.7188860442096647,0.48326812848647777,0.16759442649230044,0.6897534747985009,0.31635474050769713
0.8521497524470796,0.7017156399046248,0.4990333191087091,0.15939523097384298,0.691438426780868,0.317282056938028
0.8409472235683404,0.6838141836291673,0.5150271325872848,0.151387681913769,0.692727885597032,0.31853277218483206
0.8293827900080234,0.665354050878954,0.5311704489771487,0.14353627915265096,0.6937288264866415,0.3200561637992849
0.8176193307469675,0.6465592239253294,0.547348705070786,0.13582485513743908,0.6945404889640412,0.3217876012084458
0.8058416842471838,0.627700581151397,0.563409592189705,0.12826065305133535,0.6952486449120896,0.32365326151319834
0.7942506554383072,0.6090863577915646,0.5791649711056993,0.12087638504724973,0.6959211758380708,0.325575448770468
