x-axis (g),y-axis (g),z-axis (g),x-axis (deg/s),y-axis (deg/s),z-axis (deg/s)
0.6172417984646267,0.475958633104595,0.6710964137321963,0.8286483359332106,0.3278523050176964,0.4523939986902177
0.6286925018794942,0.49861478281446137,0.6578986552186978,0.8186013553190704,0.33239719133242607,0.46148962611801936
0.6400869711312192,0.5212017984732684,0.6448067183666074,0.8085356204681484,0.3370895629947748,0.4705255755807283
0.6513490295934845,0.5437620117158142,0.6318412838931263,0.798341844795272,0.34217639192659083,0.4795259585820068
0.6623967536140929,0.5663234160778283,0.6190209867026847,0.7879243668626938,0.34787829136190396,0.48851314688416536
0.673141653227975,0.5888930615730884,0.6063649992925326,0.7772051782395885,0.3543765674491395,0.49750764718263085
0.6834892163137094,0.611452778897947,0.5938955952051341,0.7661261416080132,0.36180327491427783,0.5065284730688829
0.6933409634900548,0.6339573908305877,0.5816406141661298,0.7546494972488632,0.37023470913754186,0.5155937794970964
0.7025979654617581,0.6563353420398936,0.5696357489596467,0.7427568866755311,0.3796884880154751,0.5247215069895379
0.7111655820598229,0.6784914779710921,0.5579265634028365,0.7304472170744073,0.3901241190362574,0.5339298006074306
0.7189590158772972,0.7003115452235189,0.5465701342453793,0.7177337445143481,0.4014467313501301,0.543237019102364
0.7259091521352482,0.7216678806525009,0.5356361926206046,0.7046407673427703,0.41351349233643486,0.5526612254868263
0.7319680933633124,0.7424257089063417,0.525207628942108,0.6912002975510293,0.42614212798656936,0.5622191413048925
0.737113798956204,0.7624494769113944,0.515380224825816,0.6774490240039062,0.43912092375722434,0.5719246411739641
0.741353304890608,0.7816087124722013,0.5062614914263349,0.6634258060918384,0.4522195892694723,0.5817869494597735
0.7447241203986374,0.799782992248617,0.49796852810264836,0.6491698492133778,0.46520041475761736,0.5918087661937936
0.7472935630712371,0.8168657289686554,0.49062486852216053,0.634719623950567,0.4778292165765254,0.6019845859931519
0.7491559844086592,0.8327666248395027,0.48435635033316066,0.6201125072135025,0.4898856509036564,0.6122994767114656
0.7504280346020223,0.8474127740693062,0.47928612400001674,0.6053850526642448,0.5011725584385915,0.6227285527607601
0.7512422983408077,0.8607485200786867,0.4755289989707706,0.5905737439939227,0.5115240805766368,0.6332373145160065
0.7517397843868311,0.8727342726828724,0.47318540260729064,0.5757160505668542,0.5208123545049929,0.6437829366656697
0.7520618557131569,0.8833445606300704,0.4723352907285515,0.5608515909571977,0.5289526492729735,0.6543164844390067
0.7523422342915168,0.8925656320689034,0.4730323905796716,0.5460232146188815,0.5359068480596714,0.6647859287777879
0.752699701115632,0.9003929197294485,0.4752991717253606,0.531277832622013,0.5416852164649699,0.6751397317290952
0.7532320399676664,0.9068286617196561,0.47912292443805765,0.5166668614371654,0.5463464266578955,0.6853306928637682
0.7540116508582312,0.9118799181429912,0.48445327814226186,0.502246185099649,0.5499958368853709,0.6953196956660571
0.7550830990503784,0.9155571552287067,0.4912014168680859,0.48807558667087103,0.5527820589470234,0.7050789759681855
0.7564626847071055,0.9178734902761877,0.49924114964776095,0.474217645985639,0.5548918854490151,0.7145945554287568
0.7581399348415911,0.9188446105655226,0.5084118787441483,0.46073614404196944,0.5565436951119919,0.7238675407577431
0.7600807516154766,0.9184893050448915,0.518523386394957,0.44769405255137423,0.5579795075640529,0.7329140791557731
0.7622318153387508,0.9168304854717808,0.5293622408954449,0.4351512183451068,0.5594559166721795,0.7417638743428038
0.7645257493884244,0.9138965285210008,0.5406995146020879,0.4231618754308558,0.5612341899221645,0.7504572952835719
0.7668865154968391,0.9097227450010139,0.5522994180549312,0.41177213200744944,0.5635698760397401,0.7590412395766158
0.7692345237952275,0.9043527775108046,0.5639283924004947,0.40101758562760786,0.5667023089076919,0.7675640335078723
0.771491009356406,0.8978397424082359,0.5753641709510261,0.39092121723971573,0.5708444279602747,0.7760697498932481
0.7735813373049207,0.8902469628901203,0.5864043218602146,0.3814917045479438,0.5761733493759748,0.7845923938365031
0.775437039145214,0.8816481829895904,0.596873816836461,0.3727222776504375,0.5828221153908028,0.7931504388782628
0.7769965381724505,0.8721272022012541,0.6066312325299217,0.36459021598090974,0.5908730191669557,0.8017421883923183
0.7782046747448262,0.8617769217687448,0.6155732767376767,0.3570570560034204,0.6003528496848585,0.8103423896226166
0.7790112763144932,0.8506978411987114,0.6236374344364403,0.35006954481321895,0.6112303264703006,0.8189004439352391
0.779369118085219,0.838996082882003,0.6308026415600314,0.3435613368544351,0.6234159005063498,0.8273404431648579
0.7792316772939507,0.8267810506241563,0.637088009785606,0.33745539067114766,0.6367639896237062,0.8355631272371237
0.7785510915254965,0.8141628427731705,0.6425497360306623,0.3316669815267902,0.6510775993361487,0.8434497130412247
0.7772766887958835,0.8012495425278534,0.6472764292609187,0.3261072057276724,0.6661151596732888,0.850867400062702
0.7753543696434858,0.7881444986037242,0.65138316900255,0.3206868157408896,0.6815992918261622,0.8576762256951642
0.7727269995737921,0.7749436918311611,0.6550046703729175,0.31532019412677187,0.6972271123972071,0.8637368326093889
0.7693358284676047,0.7617332615853128,0.6582879666380563,0.3099292514777091,0.7126815946863533,0.8689186305779489
0.7651228091504116,0.7485872448027686,0.6613850308566109,0.30444702151765746,0.7276434422152699,0.8731077920045989
0.7600335581573151,0.735565564185383,0.6644457430543397,0.29882072758728384,0.7418028951236586,0.876214517735523
0.7540206044808183,0.7227122946939892,0.6676115698711628,0.29301411074893396,0.754870889279603,0.8781790483502573
0.7470465201985476,0.7100542408690003,0.6710102622144312,0.28700884175797803,0.766589023144329,0.87897597400864
0.7390865288438607,0.6975998722856618,0.6747517967128088,0.2808048871838365,0.7767378584933785,0.87861650832355
0.7301302454996789,0.6853386888032988,0.6789256932662568,0.2744197627579237,0.7851431852165025,0.8771485314718257
0.7201823123081724,0.6732411172379962,0.6835997392002792,0.26788668184408976,0.7916800119468237,0.8746543656617988
0.7092618430637013,0.6612590707410143,0.6888200467183128,0.26125168949963123,0.796274194771523,0.8712464114361118
0.697400763529562,0.6493273241157996,0.6946122714081417,0.2545699571824998,0.7989017748753903,0.8670609344427678
0.6846413084749116,0.6373658645176289,0.7009837328215163,0.24790149279278845,0.7995862499947541,0.8622504372804497
0.6710330884058394,0.6252833597834335,0.7079261110319104,0.24130658763598675,0.7983941404938338,0.8569751682167758
0.6566302453093165,0.6129818398977642,0.7154183526411164,0.23484136808474773,0.7954293155509526,0.8513943975068565
0.6414892575481561,0.6003626074000401,0.7234294120373561,0.22855383779060437,0.7908266069113097,0.8456581241147393
0.6256679155874447,0.5873332802762854,0.731920483175746,0.22248078031479687,0.7847452486181056,0.8398998549624264
0.60922586728915,0.5738157311048003,0.7408464455704011,0.2166458384634038,0.7773626372239875,0.8342310229682186
0.5922269291484241,0.5597545290827693,0.7501563539594033,0.2110589951677704,0.7688688098693756,0.8287374808276816
0.5747430942090138,0.5451253322014745,0.7597929384660751,0.20571755520394275,0.7594618950844214,0.8234783311998265
0.5568598653859858,0.5299425347087081,0.7696912405915717,0.20060857561554607,0.7493446171924635,0.8184871421783256
0.5386822406123383,0.5142653724456818,0.7797766748129639,0.19571252812245546,0.7387217492541961,0.8137753661113846
0.5203404159826736,0.4982016488494469,0.7899629563979937,0.19100781582791032,0.7277982352005483,0.8093375508705964
0.5019940994715401,0.48190828870700136,0.8001504506489996,0.18647562890422725,0.7167775647188722,0.8051577297334466
0.48383428250419025,0.4655880715087146,0.810225553477169,0.1821045305927726,0.7058599092356453,0.8012162247615393
0.466081432448241,0.4494821495413068,0.8200616862571911,0.17789413557702646,0.6952395343041069,0.7974960233990059
