x-axis (g),y-axis (g),z-axis (g),x-axis (deg/s),y-axis (deg/s),z-axis (deg/s)
0.3461654187347346,0.1488778540012309,0.8096680447478058,0.8444709273562804,0.14147702169378157,0.44788999898368836
0.36323859156825666,0.15543111658100875,0.8151938764164576,0.8510171332030487,0.14176460523171838,0.4468917707720404
0.38039604005865163,0.16210426726477103,0.8205661988728898,0.85747699363855,0.1420939838296694,0.44572824708178144
0.3977933254414098,0.16912410851119478,0.8255817402550283,0.8637504339992625,0.14254320770805992,0.44418710246400694
0.4155532661670124,0.17669243445905744,0.8300525058154368,0.8697434678446921,0.1431853782455719,0.4420806220162206
0.4337532189705252,0.18497847327843447,0.83381004980983,0.8753692740387172,0.1440881892740082,0.43925859620256436
0.4524168989188633,0.1941143395138663,0.836708437631078,0.8805487937294726,0.14531382506321,0.4356185652224115
0.47151124529814487,0.2041934502074123,0.8386259791734338,0.8852109515954256,0.14691904544551024,0.43111280817771785
0.49094834569214774,0.21527163001558264,0.8394658530970991,0.8892926228933397,0.1489553238186931,0.4257517422581752
0.5105919614593496,0.22737045072072942,0.8391557603997919,0.8927384692104932,0.15146895437351587,0.41960367666581455
0.5302678006014986,0.2404822314166467,0.8376467498545885,0.8955007522070763,0.15450109973578854,0.41279113098958325
0.5497763940725584,0.2545760714814898,0.8349113535445295,0.8975392084812701,0.15808779872425952,0.4054841576427077
0.5689072704625899,0.2696042962800599,0.8309411637302255,0.898821033749622,0.16225998766079483,0.3978912870825008
0.5874530986503089,0.28550875643715945,0.8257439773110723,0.899320985399994,0.16704360247185876,0.3902488327779497
0.6052225714378654,0.3022265223537224,0.819340634153981,0.8990215740398593,0.1724598213843945,0.3828093460776238
0.6220510162746278,0.3196946410049169,0.8117616815475609,0.8979132815883785,0.17852548182551162,0.3758300006716259
0.637808013586528,0.33785375624759195,0.8030440080236894,0.8959947196776049,0.18525366582132793,0.36956161859878817
0.6524016447311616,0.35665052252725693,0.7932276031609363,0.8932726304460122,0.19265440349425103,0.36423893506898275
0.6657793437754976,0.3760388533545592,0.7823526120159779,0.8897616336539045,0.2007354027222952,0.3600725509042216
0.6779256551241186,0.39598013210418037,0.7704568593209683,0.8854836393613728,0.20950268265767422,0.3572428538385982
0.6888574721217748,0.41644256937232066,0.7575740155493862,0.8804668726761726,0.21896097589021163,0.3558960182000434
0.6986175269478052,0.43739991792501803,0.7437325612385164,0.8747444935361445,0.22911377225419138,0.356142030640021
0.7072670052347972,0.4588297561182523,0.7289556757410479,0.868352836425828,0.2399629071768381,0.358054549644401
0.7148781655223864,0.48071152905939857,0.7132621316780239,0.8613293380712866,0.2515076464516811,0.36167229786951377
0.721527759228677,0.5030245007893278,0.6966682183375739,0.8537102611208521,0.2637432819937956,0.3670016149475188
0.7272918852702681,0.5257457280640573,0.6791906492998268,0.8455283545233495,0.2766593220228605,0.37401976681849725
0.7322426956329111,0.5488481242121718,0.6608503362065157,0.8368106133795313,0.29023742563846144,0.38267861490801225
0.7364471194425578,0.572298646186807,0.641676837295052,0.8275763100945112,0.3044492872819415,0.39290829042020486
0.7399675206005855,0.5960566137206296,0.6217132219581085,0.8178354635343145,0.3192547135291207,0.4046205888322852
0.7428639741190941,0.6200721587493849,0.6010210369321878,0.8075878937078931,0.33460014737793653,0.417711888572864
0.745197661779385,0.6442848061543922,0.5796850209052485,0.7968229776107609,0.3504178806426301,0.4320654959379972
0.7470347659525282,0.6686222015460821,0.5578171964597097,0.7855201796987331,0.36662615316402297,0.44755341541392285
0.7484501916427712,0.692999024785906,0.535559974056657,0.7736503812373479,0.3831302711987288,0.4640376312648819
0.7495304735348148,0.7173161546004098,0.5130879333694104,0.7611779802047486,0.3998247921419245,0.4813710545058226
0.7503753218001921,0.7414601748065187,0.4906080021889419,0.7480636813583997,0.4165967263528462,0.4993983333348896
0.7510974154835367,0.7653033312307779,0.46835783023938155,0.7342678481545861,0.43332960830184686,0.5179567414487763
0.7518202478493972,0.7887040558985023,0.4466022509782287,0.7197542475933821,0.44990819800405407,0.5368773468960022
0.752674043066821,0.8115081681628907,0.42562783397629844,0.7044939882114684,0.46622349876359875,0.5559866264801939
0.7537899757646278,0.8335508393324695,0.4057356479479109,0.6884694320015168,0.48217772636732936,0.5751086319134804
0.7552931130696909,0.854659367993567,0.38723247339996714,0.671677853792951,0.49768884381125394,0.5940677406114017
0.7572946445986505,0.8746567594174581,0.3704208172501395,0.6541346265884237,0.512694287699076,0.612691944192912
0.7598840560931375,0.8933660377729175,0.35558818257867036,0.6358757278535672,0.5271535580934306,0.6308165499238024
0.7631219293705462,0.9106151494767474,0.34299612805673796,0.6169593886494406,0.5410494203886075,0.6482881027901626
0.7670340137020705,0.9262422462518756,0.3328697071510252,0.5974667433089874,0.5543875704744982,0.6649682858679139
0.7716071164826919,0.9401010743949704,0.32538790135379336,0.5775013804753445,0.5671947353724692,0.6807375297385999
0.7767872144526785,0.9520661496062317,0.3206756499921606,0.557187745106374,0.579515310998328,0.6954980612528535
0.7824800054261353,0.9620373712376501,0.3187980287150385,0.5366683939235735,0.5914067658529539,0.7091761487701155
0.7885539219919542,0.969943731543109,0.31975703854836485,0.5161001622204389,0.6029341529529249,0.7217233532345741
0.7948454316614738,0.9757458082032981,0.32349133877046415,0.4956493564251149,0.6141641613954453,0.7331166676373659
0.801166270553839,0.9794367933506469,0.32987909377250846,0.4754861427149155,0.6251591942619519,0.7433575148878176
0.807312115784782,0.9810419079080644,0.3387439134241316,0.4557783554571867,0.6359719741149343,0.7524696675321298
0.8130721073711246,0.9806161714257348,0.349863658139335,0.4366849980976836,0.6466411472795033,0.7604962428688331
0.8182385909131511,0.9782406366198959,0.36298166655161396,0.418349750683771,0.6571882832948464,0.7674960045523332
0.8226164692198109,0.9740173433352399,0.37781976058844713,0.4008948293763042,0.6676165502942146,0.7735392584195052
0.8260316202995416,0.9680633851086375,0.39409220657329574,0.384415560556806,0.6779111986212434,0.7787036595470457
0.8283379513196001,0.9605045979108003,0.4115196791527886,0.36897603175467664,0.688041815454571,0.7830702456270613
0.8294227994556437,0.951469459862117,0.42984220393498684,0.35460615998647,0.6979661373826329,0.7867199780317794
0.8292105443638271,0.9410838190848645,0.4488300589283787,0.3413004721313487,0.7076350425433651,0.7897310093001084
0.8276644456605788,0.9294670338597918,0.4682917042720415,0.3290188196312248,0.7169982065645865,0.792176810464794
0.8247868456925381,0.9167300092653566,0.4880779886076604,0.3176891506936883,0.72600981360282,0.7941251927694791
0.8206179694994364,0.9029754482198478,0.508082145696693,0.30721233907964957,0.7346336790827085,0.7956381570295625
0.8152336015302919,0.8883004104792035,0.5282354350061723,0.2974689239581164,0.742847173653868,0.7967724121370321
0.8087419197820853,0.8728010067009938,0.5484986744387613,0.2883274577258611,0.7506434417568029,0.797580333431602
0.8012797266773944,0.8565787697225768,0.5688503328208003,0.2796539987742739,0.7580315791090929,0.7981110913246909
0.7930082426938461,0.8397479715221019,0.5892722571333417,0.2713221375049802,0.7650346594842261,0.7984116768291698
0.7841085393124047,0.8224429257574155,0.6097344621211815,0.2632228223048871,0.7716857624480995,0.7985275852956062
0.7747766014189121,0.8048241670214857,0.6301806627294081,0.25527317476956396,0.7780224231668316,0.7985029894303132
0.7652179457545899,0.7870823607454411,0.6505163393522274,0.24742346699387557,0.784080170580495,0.7983803291889401
0.7556416989435271,0.769438896441446,0.6706010553417284,0.2396614927724887,0.7898860062300821,0.7981993564564037
0.746254068224201,0.752142364395947,0.6902464710660546,0.23201370908924335,0.7954527692823038,0.7979957803171659
