x-axis (g),y-axis (g),z-axis (g),x-axis (deg/s),y-axis (deg/s),z-axis (deg/s)
0.4015838992141128,0.2559941665049053,0.5984810322199056,0.7034289260887712,0.19835018039225313,0.25900394553094275
0.40539320803765877,0.26229395624515717,0.5953097559711039,0.6967640980795028,0.1910838825899483,0.25801594053914817
0.4093398514321782,0.26860231349728225,0.592196912030391,0.6900790500679401,0.1839467236583026,0.25699616960089167
0.41363550061221316,0.2749940300911914,0.5891655276444598,0.6832931447954554,0.17706724659468395,0.25590532420553247
0.41846627860338276,0.2815364616450343,0.5862310306925108,0.6763380295573631,0.1705633393638887,0.2547092493697487
0.42398553980970416,0.28828481131073497,0.5834004462529162,0.6691633039641184,0.164539067438509,0.2533802406312089
0.4303097775728804,0.29527832286608857,0.5806727221017872,0.6617403536345839,0.1590824039029065,0.25189778452511447
0.43751764999242587,0.30253751549101593,0.5780402142820857,0.6540642043756547,0.1542639118282865,0.25024872873347487
0.4456518384979739,0.31006252383608496,0.5754912002493875,0.646153470955012,0.15013637828330526,0.24842690291376623
0.45472322308230906,0.31783254972422503,0.573013135893933,0.6380486630083644,0.14673534748796666,0.24643224454558124
0.46471669250671005,0.32580638859573774,0.5705962540834413,0.6298092468118979,0.1440804547252925,0.24426951495124788
0.4755978185866028,0.3339239642379244,0.5682370312542794,0.6215099339189811,0.14217742457844793,0.2419467176610411
0.48731961360551446,0.3421087867078613,0.5659410334941611,0.613236674031193,0.1410205681573931,0.2394733530101909
0.4998286538192453,0.3502712364845497,0.5637246961002698,0.6050827765810516,0.1405955949912758,0.2368586576985994
0.5130699782492882,0.3583125681583286,0.5616156858462921,0.5971454866127657,0.14088254652556786,0.2341099845346111
0.526990344241912,0.3661295152713931,0.5596516327382483,0.5895232131014105,0.1418586596575044,0.23123147452743364
0.5415396206751633,0.37361936142179814,0.557877183412214,0.5823134709016771,0.14350098015765386,0.22822316016674438
0.5566703066370398,0.38068532035322333,0.5563395046693894,0.5756114693292778,0.1457885665793806,0.22508061503894802
0.5723353593320725,0.38724204033983806,0.5550825354378425,0.569509176427341,0.14870415449115024,0.2217952315222167
0.5884846838196959,0.39322101843634005,0.5541404321560098,0.5640946194803812,0.15223518739641023,0.21835516660962556
0.6050607663551371,0.39857568224267553,0.5535307620612825,0.5594511554274014,0.15637416297258006,0.21474694813260045
0.6219940141204378,0.4032858757398207,0.5532480605612827,0.5556564602712178,0.16111828928334812,0.21095768267298468
0.6391983928940886,0.4073614766522697,0.553258376539919,0.5527810401620701,0.16646849298443042,0.2069777556528876
0.6565679308789739,0.4108448802640795,0.5534953816521243,0.550886150157134,0.17242786745561622,0.20280386715929313
0.6739745855508648,0.41381211196500695,0.553858519748015,0.5500211083516945,0.17899969019061132,0.19844220769780435
0.6912678583643428,0.4163723795114252,0.554213528370166,0.5502201002073022,0.1861851725327422,0.1939115497030609
0.7082763993747193,0.4186659453520484,0.5543954874087563,0.5514986674564094,0.19398112802734901,0.1892460161129017
0.7248116819380531,0.42086028639540796,0.5542143549129915,0.5538501562640915,0.2023777558427049,0.1844972886399861
0.7406736591229943,0.4231446081401768,0.5534627527871998,0.55724245122475,0.2113567312798957,0.17973603647716546
0.7556581507892398,0.42572288525033153,0.5519255819624913,0.5616153395082983,0.22088977582973515,0.17505238076369847
0.7695655651292951,0.4288057033786404,0.5493908928550649,0.5668788311477327,0.2309378453041985,0.17055525966644283
0.7822104409747456,0.43260126885777217,0.5456613253594222,0.5729127090672208,0.24145102837847213,0.16637062063763872
0.7934312153448289,0.4373060257229838,0.5405653726971171,0.579567501472324,0.25236919279229403,0.16263843650846435
0.8030995799849654,0.4430953665287693,0.5339677203459637,0.5866669678931663,0.2636233568557986,0.15950861600745056
0.8111287935561532,0.45011493957362414,0.5257779655679998,0.5940120784553943,0.2751377048037025,0.15713595207320233
0.8174803622818028,0.4584730378349861,0.5159571306306351,0.6013863544164014,0.2868321111278198,0.15567431794413836
0.8221685879751988,0.4682345041904211,0.504521535268922,0.6085623366698779,0.29862499613581145,0.1552703767982662
0.8252626026492103,0.4794165061155545,0.49154377927486625,0.6153088662769167,0.3104363066518766,0.15605711175757128
0.8268856554612747,0.49198642625853045,0.4771507897311276,0.6213988033201473,0.32219040477956734,0.15814750647305612
0.8272115811907963,0.5058619904333098,0.4615190933212291,0.6266167809569055,0.33381865526051674,0.16162871062297643
0.8264585495637118,0.5209136204914488,0.44486766618886275,0.6307665910884223,0.3452615278069623,0.16655700919139577
0.8248803611283968,0.5369688658799557,0.4274488769463768,0.6336778245659209,0.3564700728450277,0.17295388038146955
0.8227557080716427,0.5538186442024059,0.409538159897715,0.6352114381909157,0.3674066838821618,0.1808033766957598
0.8203759483115513,0.571224916842376,0.3914231258782205,0.6352639873453976,0.37804512250018363,0.1900510003013729
0.8180320407437085,0.5889293484066969,0.37339283189323613,0.6337703406183518,0.3883698472292636,0.20060417119271567
0.8160013526444556,0.6066624541809407,0.35572788702674196,0.6307047750419038,0.39837474932844885,0.21233430912346826
0.8145350728349284,0.6241527313191039,0.33869197459049816,0.626080431986997,0.4080614509123985,0.22508047207238352
0.8138469442040769,0.6411352977223721,0.3225252273205945,0.6199471900691903,0.4174373586267261,0.2386544191154703
0.814103966636671,0.657359625206442,0.3074397156114322,0.6123880797323301,0.4265136849625521,0.2528468974460568
0.8154196185431678,0.6725960454710972,0.29361711333666873,0.6035144231827745,0.4353036466194248,0.2674348946650405
0.8178500064902833,0.6866408208474951,0.28120840865833946,0.5934599330349468,0.4438210242859495,0.2821895503500892
0.8213931844733009,0.6993196970044889,0.27033534583470487,0.5823740443153951,0.45207922218174507,0.2968843865801213
0.8259916957404286,0.7104899805790439,0.261093134973878,0.5704147886277882,0.46009090231068667,0.31130349622539416
0.8315381911088775,0.7200412994355062,0.2535538641744268,0.557741547281234,0.4678681933507414,0.3252493207014705
0.8378837801053365,0.7278952959161081,0.24777000311702746,0.5445080420686154,0.47542339494494684,0.3385496556357031
0.8448485875896744,0.7340045646573737,0.24377740475387885,0.5308559367304989,0.48277002351964776,0.35106354363603093
0.852233831587041,0.7383511696679779,0.24159729263573762,0.5169094257825793,0.48992398466546083,0.3626857483617741
0.8598346201674149,0.7409450573469732,0.24123686016702867,0.5027711754403846,0.4969046180290623,0.3733495538186191
0.8674525973555033,0.7418226241332475,0.24268829356987906,0.48851994770383705,0.5037353504743127,0.38302769771677664
0.8749075589992859,0.7410456051396838,0.24592624640240307,0.4742101767478262,0.510443716370819,0.39173132807979283
0.8820472149198898,0.7387003333192215,0.2509040199786847,0.45987367098451576,0.5170605613594003,0.39950696764607924
0.8887543951384486,0.7348972908995393,0.2575489183615756,0.4455234813636585,0.5236183351132537,0.4064315793682317
0.894951182328278,0.7297707519174642,0.2657574254769613,0.43115980763497863,0.5301484927456582,0.412605945191242
0.9005996912066486,0.7234782134931594,0.2753909734692683,0.4167776160440853,0.536678153110542,0.4181466938388854
0.9056994938700236,0.7161992498831982,0.28627311738602207,0.40237542765280176,0.5432262916654452,0.4231774337073907
0.9102819878384528,0.708133410315256,0.2981888890063078,0.38796452665980785,0.5497998601145085,0.42781955392122323
0.9144022954186124,0.6994968273059374,0.3108869669905271,0.37357765970214285,0.5563903083961984,0.43218333793022506
0.9181295397164668,0.6905173083473086,0.3240850753423347,0.3592761816742182,0.5629710215098309,0.4363600763693851
0.9215365333576523,0.6814278447488167,0.33747872098876724,0.3451545839757398,0.5694961619763957,0.44041585609645945
0.9246900112124068,0.6724586734011722,0.3507530273629342,0.3313414468846458,0.5759013211054747,0.44438762916301017
