x-axis (g),y-axis (g),z-axis (g),x-axis (deg/s),y-axis (deg/s),z-axis (deg/s)
0.8033482814236046,0.613267240064601,0.35595249857185385,0.6587293132025986,0.33752140648758466,0.18811646653518146
0.8118638675342275,0.6275519188470757,0.3407690516558046,0.6549146235465058,0.34913294825809127,0.19451890097781982
0.8200996975723941,0.6416829648200596,0.3256350715688629,0.6509638491250571,0.3607038124198767,0.20098480262360036
0.827835009870199,0.6555219795155457,0.31058116908855815,0.6466094795354695,0.3722453789775728,0.20766742495073182
0.8348798705508342,0.6689385053134344,0.2956428550231055,0.6416084198356599,0.38376307295663836,0.214705351073874
0.8410879687464449,0.6818116281314669,0.2808676529105421,0.6357524127900007,0.3952548628009108,0.22221534518655162
0.8463662050409431,0.6940310977900098,0.2663216106085148,0.6288756773062493,0.4067107246005675,0.23028678203987188
0.8506802758435755,0.7054980192438922,0.25209457572883254,0.6208596544635507,0.418113026922995,0.2389777975432238
0.8540557992178577,0.716125194343115,0.23830366185090832,0.6116349765074935,0.4294377271119419,0.24831320323649214
0.8565749037351156,0.7258372098389401,0.2250944422577736,0.6011809498344861,0.4406562183973879,0.25828412198766765
0.8583685763865133,0.73457037122975,0.21263956165554332,0.5895229580351233,0.4517376294432917,0.26884923324668164
0.8596054060605274,0.7422725736096363,0.20113464550955432,0.5767282432432927,0.46265135511717864,0.2799374626720656
0.86047763805801,0.7489031813909005,0.19079159858865086,0.5629005199615573,0.47336958996304224,0.29145191065751475
0.8611856517637301,0.7544329613866811,0.18182960304130044,0.5481738284105897,0.4838696442208235,0.303274784451755
0.8619220749542094,0.7588440819383568,0.17446433380834603,0.5327059611692152,0.4941358456549867,0.31527307674378613
0.8628567496599326,0.7621301586545777,0.16889608701173936,0.516671715006932,0.5041608674421911,0.3273047182197478
0.8641236695784829,0.7642962989203644,0.16529764816412307,0.5002561449715371,0.5139463704860635,0.33922492227118684
0.8658108288142932,0.7653590761318433,0.16380279778719753,0.4836479416177135,0.52350290444072,0.3508924374210738
0.8679536735523689,0.7653463532155744,0.1644963531246668,0.46703302122751444,0.5328490713778633,0.3621754285927111
0.870532554184397,0.764296874859516,0.16740657265798176,0.45058841398144145,0.5420100149343023,0.37295672385015965
0.8734742601918595,0.7622595592181788,0.17250060797803932,0.4344765522876873,0.5510153513681743,0.3831381902342217
0.876657409264927,0.7592924416234941,0.17968348443590357,0.41884009298121905,0.5598967030075275,0.3926440416230185
0.8799211798890438,0.7554612529021099,0.18880084276263773,0.40379744264016715,0.5686850255953295,0.40142293286333464
0.883076643965598,0.7508376502696845,0.19964539785929644,0.38943918400833843,0.577407936585259,0.4094487561274432
0.8859197892135805,0.7454971558782539,0.21196679038727692,0.37582561371626144,0.5860872503940704,0.41672012460232527
0.8882452305377713,0.7395168931433356,0.22548424469304867,0.36298558992404445,0.5947369092653928,0.4232586011355208
0.8898595992013819,0.7329732403083283,0.23990122486026033,0.35091684944505097,0.6033614664467482,0.42910580049928954
0.8905936659443948,0.7259395411126252,0.25492111802721074,0.33958788762399944,0.6119552347663163,0.4343195583606608
0.8903123905259034,0.7184840214745035,0.2702628844218579,0.3289414049419687,0.6205021623057253,0.4389694129720788
0.8889222818008881,0.7106680573344636,0.28567560462844765,0.31889921956729533,0.6289764421429787,0.44313168289765387
0.8863756818180162,0.7025449219339748,0.3009509273904499,0.30936843480673143,0.6373438096379722,0.4468844428306077
0.8826718347495695,0.6941591117398642,0.3159325698956451,0.3002485457147579,0.6455634326649377,0.4503026983072175
0.8778548463894896,0.6855463110313794,0.3305222348168643,0.2914390808792231,0.6535902610398482,0.4534540390957933
0.8720088632570889,0.6767340089029374,0.3446815670923847,0.28284731307000527,0.6613776735973805,0.4563950120639183
0.8652509854468969,0.6677427328884769,0.3584300576784341,0.2743955430123861,0.668880246210814,0.4591684006455632
0.8577225615914642,0.6585878147605331,0.37183908879064825,0.2660274678931689,0.6760564616045277,0.461801533960037
0.8495795897486417,0.6492815604796881,0.3850225832896017,0.25771319076553767,0.6828711911234403,0.46430567913830334
0.8409829619935899,0.6398356615616917,0.3981249498698732,0.249452505897791,0.6892977979429534,0.46667650061894217
0.8320892454817655,0.6302636623438381,0.4113071893840702,0.2412762025169626,0.6953197382895283,0.4688955049253524
0.8230425959693084,0.6205832888062635,0.42473213474297,0.23324525730457804,0.7009315696936433,0.4709323328826656
0.8139682623296322,0.6108184505879675,0.4385498317978578,0.22544792496279834,0.7061393108204851,0.47274771655841236
0.8049679763429436,0.6010007482450256,0.4528840316476955,0.21799487617017865,0.7109601340276853,0.4742968874595717
0.7961173462755534,0.5911703510761074,0.4678206615905335,0.21101266350258677,0.7154214078844661,0.47553320656505166
0.7874652009537876,0.5813761544419389,0.48339898280486143,0.20463590953742689,0.7195591412368044,0.4764117854063031
0.7790346774862752,0.5716751761446419,0.49960594174115813,0.19899869997022132,0.7234159120965596,0.47689287950746595
0.7708257225873091,0.5621312053818583,0.5163739953644407,0.19422572255876192,0.7270383929024508,0.4769448592548739
0.7628185936132096,0.5528127711886122,0.5335824549833356,0.19042371652213083,0.7304746077875195,0.4765465964418578
0.7549779062981871,0.5437905464244207,0.5510621661938164,0.1876737852356032,0.7337710765146024,0.47568914488106295
0.7472567831791003,0.5351343449585072,0.5686031386090792,0.18602507834475088,0.7369700126462841,0.47437663813108405
0.7396007072972572,0.5269099010559953,0.5859645710805734,0.18549027040572266,0.7401067490568555,0.47262637420705583
0.7319507737413709,0.5191756391081416,0.6028865952225404,0.18604315624700016,0.7432075607360674,0.4704681039940752
0.7242461475401757,0.511979647620046,0.6191029876138746,0.1876185543696862,0.7462880417146462,0.46794258503554736
0.716425668430855,0.5053570634354153,0.6343540805076613,0.1901145660344554,0.7493521688953858,0.46509950370014186
0.708428677619469,0.4993280510079633,0.6483991299015553,0.19339708734717162,0.7523921502025946,0.46199490486208145
0.7001952647284383,0.493896528335088,0.6610274727616363,0.19730632340775892,0.755389108207637,0.45868829766899777
0.6916662311490803,0.48904974782056143,0.6720679137585935,0.20166491648287374,0.7583145947713676,0.45523962726949374
0.6827831271437652,0.48475878924514026,0.6813959159840353,0.20628718319267483,0.7611328700356077,0.45170631410380563
0.6734887352763711,0.48097996603413656,0.6889383188206257,0.2109888673826363,0.7638038143615185,0.4481405631581804
0.6637283369729555,0.4776570882410933,0.6946754585687448,0.21559676325522367,0.7662862798044933,0.4445871342311252
0.6534520118212881,0.47472446938596,0.698640713635359,0.21995755354858412,0.768541634573375,0.44108173985469845
0.6426180854583667,0.4721105127769967,0.7009176277457677,0.22394524406416805,0.7705372161810956,0.4376501996905506
0.6311976718373007,0.46974166937760004,0.7016348755507823,0.22746665993241338,0.7722493929044987,0.43430842942017467
0.6191800647005594,0.46754652658983714,0.7009594213693935,0.23046459861139762,0.7736659438778969,0.4310632799084312
0.6065785409288309,0.46545976810353784,0.6990882822462878,0.2329184038793232,0.7747875087968397,0.4279141716309895
0.5934359677900232,0.4634257413167191,0.696239341836193,0.23484192408726354,0.7756279291020504,0.4248553944465852
0.5798294808465719,0.46140138226772504,0.6926416744534626,0.23627903277277945,0.7762134003952255,0.42187886976197
0.5658734421432127,0.4593582792515778,0.6885258327188565,0.23729710299199427,0.7765804735068708,0.41897710838351243
0.5517199183396996,0.45728370508423716,0.6841145318051932,0.2379790184933875,0.7767730679815693,0.4161460512559894
0.5375560482814391,0.4551805129497644,0.6796141321738127,0.23841445421616814,0.776838782352602,0.41338746049159125
0.5235979026282196,0.4530658692422877,0.6752072836100554,0.23869124565188202,0.7768248839916946,0.4107105424321305
