x-axis (g),y-axis (g),z-axis (g),x-axis (deg/s),y-axis (deg/s),z-axis (deg/s)
0.6955078947178909,0.504498591121743,0.8747239314369322,0.24372485344795727,0.32181738258361,0.4190300861066069
0.6946957957376512,0.5128756155008495,0.8897567911279403,0.25529948865903596,0.3162980937245618,0.4221398034668771
0.6937630752865389,0.5211008968076856,0.9039874578157749,0.26683537235004107,0.31084961705365477,0.4251557855547833
0.6925702467199477,0.5289717720510495,0.9164860215728585,0.2782078237416519,0.30564199632681993,0.4279245927252653
0.6910022821706517,0.5362983311127532,0.9264220166774966,0.2892824850319134,0.30084105072776146,0.4303028138518832
0.68897408092459,0.5429071445559643,0.9331099994839149,0.29991342055802017,0.2966045802840045,0.4321597005522393
0.6864323447536388,0.5486440411181704,0.9360448417797652,0.3099434007723795,0.29307857097125795,0.43337893156721274
0.6833538480515554,0.553376056191794,0.9349248017853705,0.3192067948295987,0.2903932850883753,0.4338596753315424
0.6797405294768829,0.5569926871802398,0.9296614128213365,0.32753514550447815,0.2886591896494702,0.43351713600463654
0.6756122067278596,0.5594065878402426,0.9203762223324014,0.3347651464192073,0.2879627648045235,0.4322827595333417
0.6709979805482165,0.560553817381859,0.9073853370205118,0.34074842861701443,0.28836233264229827,0.43010424756832816
0.6659275193942532,0.5603937365565532,0.8911735130996589,0.3453623262266657,0.28988414064511286,0.42694548550928646
0.6604233934429954,0.5589086166862836,0.8723601230622431,0.34852065171766516,0.2925190108610738,0.42278644416286154
0.654495465679866,0.5561030019872374,0.8516597022532997,0.35018347912591913,0.29621991473110726,0.4176230693635152
0.6481380742829654,0.5520028430359938,0.8298399218913884,0.3503650051137708,0.30090084639267844,0.4114671359813785
0.6413303912002051,0.5466544013903917,0.8076797614167269,0.34913871864238455,0.306437339481045,0.40434601580282037
0.6340399594089424,0.5401229131496941,0.785930389822614,0.34663933830068544,0.31266890301028105,0.3963022946931778
0.6262290392657788,0.5324909930974625,0.7652808524397967,0.3430612451363707,0.31940354376522445,0.38739317331057305
0.61786307203166,0.5238567611643316,0.7463301431680233,0.33865341983306424,0.32642440244616105,0.37768959599290897
0.6089203278504446,0.5143316791562556,0.7295666715809404,0.33371115938283374,0.33349836861642046,0.36727507172393736
0.5994016677389049,0.5040380976248662,0.7153555571750086,0.3285650770508911,0.3403863680677849,0.3562441760544125
0.5893393246502129,0.4931065296972155,0.7039336415964187,0.32356806320736636,0.3468548501474972,0.3447007500175903
0.5788036960351814,0.48167268952997905,0.6954116384445299,0.3190809931308674,0.35268785726096563,0.33275583808080783
0.567907327612698,0.4698743562638508,0.6897824642155055,0.31545800794073464,0.3576989490804696,0.32052542912338017
0.5568055344957047,0.45784814793803247,0.6869345279350793,0.313032169904409,0.36174219304291877,0.3081280801356219
0.5456934240633277,0.44572631142087843,0.6866686058654423,0.31210221272557714,0.36472143043628985,0.2956825104650581
0.5347994237573181,0.43363365144960353,0.6887168871457907,0.31292098449417205,0.366597089279013,0.2833052545937855
0.5243757439199027,0.4216847318155613,0.6927628346093297,0.3156860316298106,0.367389941423271,0.2711084541237444
0.5146864901683761,0.40998148239358356,0.6984606449681424,0.3205326127463573,0.3671813860234269,0.25919785618312674
0.5059943552374434,0.3986113355796313,0.7054532931889099,0.32752927699107354,0.3661100728566904,0.24767106777117107
0.49854694698866686,0.3876459942261842,0.7133883848246503,0.33667600435719164,0.3643649397144725,0.23661609592431504
0.49256383614266275,0.3771409009857739,0.7219312953159127,0.3479047941662207,0.36217500682695636,0.2261101843998995
0.4882253326053614,0.36713543798469744,0.7307753267382744,0.36108250642385986,0.3597965244338087,0.21621894103100525
0.4856638313104867,0.35765383901936537,0.7396488431380555,0.37601570882047913,0.35749828366496844,0.20699573776393826
0.48495832480045675,0.3487067479841291,0.7483195422923847,0.39245725582711233,0.35554605496917957,0.19848135877057732
0.48613238543216813,0.34029331150568004,0.7565961755067623,0.41011431904069356,0.3541871965814842,0.19070387130173908
0.48915560532913865,0.3324036552927699,0.7643281332576494,0.42865759175263685,0.3536364691056745,0.18367869870123157
0.4939481791463404,0.32502156650539266,0.7714033724967123,0.44773139783674354,0.3540640005701347,0.17740888408737535
0.5003880539643564,0.31812719148142743,0.777745174279918,0.46696443902382356,0.3555861771558813,0.17188554487853458
0.5083198778490704,0.3116995610102155,0.7833081941049471,0.4859809113288497,0.3582600038093633,0.16708853042478927
0.5175648716566768,0.30571877398281955,0.7880742102335044,0.5044117095592583,0.36208120782445713,0.16298730516030235
0.5279307355901554,0.3001677030287637,0.7920478970496081,0.5219054200997193,0.36698607254188037,0.15954208563847636
0.53922078026488,0.29503312958362143,0.7952528613655167,0.5381387806624385,0.37285671372147267,0.15670525962445758
0.551241628914422,0.2903062665492574,0.7977280893195967,0.5528262672375115,0.37952927200358777,0.1544231077548021
0.5638090517240292,0.28598267951490014,0.7995248686395232,0.5657284596034258,0.3868043107519256,0.15263783258296784
0.5767517382671203,0.28206166750180445,0.8007041821435744,0.576658843649797,0.394458592634597,0.15128987649525724
0.5899130604410688,0.27854520687310125,0.8013345175887636,0.585488736329884,0.40225736636462117,0.1503204803754225
0.6031510981602636,0.27543659374227536,0.8014900079384305,0.5921500702181772,0.4099663254903527,0.14967440133000467
0.616337369849067,0.27273893840692065,0.8012488039733916,0.5966358499144507,0.4173624958020971,0.14930267336742808
0.6293548130111211,0.27045366886991623,0.8006915850696922,0.5989981899129213,0.42424345345965103,0.14916526330969657
0.6420955889792884,0.2685791896323926,0.79990012972372,0.5993439586895185,0.430434455705727,0.14923344929618546
0.6544592415730544,0.2671098182158877,0.7989558902512681,0.5978281802968124,0.435793262028117,0.14949173477139285
0.6663516313873935,0.26603508797908937,0.7979385414272359,0.5946454748192482,0.44021261834686404,0.14993911007965285
0.6776849121476258,0.26533946525428653,0.7969244968823395,0.5900199437733906,0.4436205546389562,0.15058948910386583
0.6883786338009291,0.26500248564643275,0.7959854072701421,0.5841940166535476,0.44597879473720314,0.15147118100530393
0.6983618714487766,0.26499927264393064,0.7951866693669505,0.5774168611622535,0.447279686750009,0.1526253068894607
0.7075761117839332,0.2653013653819656,0.7945859854194547,0.5699330137486069,0.44754212825612,0.15410313647214158
0.7159784982685866,0.26587775481684406,0.7942320181687144,0.5619719016818119,0.4468069803469751,0.15596239734685238
0.723544956950652,0.2666960112270057,0.7941631904500429,0.5537388976491415,0.4451324402488592,0.1582626945899802
0.7302727046954884,0.267723382336826,0.7944066804306313,0.5454084699155737,0.4425897781399801,0.16106026522195285
0.7361816824459496,0.2689277507879576,0.7949776652432912,0.5371198656670135,0.4392597469382652,0.16440237348914272
0.7413145534202831,0.2702783612763404,0.795878867076936,0.5289755962235481,0.4352298535156448,0.16832172142305094
0.7457350498708524,0.2717462593709592,0.7971004559086046,0.5210427884179797,0.43059254700285543,0.17283129690439702
0.7495246276276343,0.27330442271058736,0.7986203604928828,0.5133572389583504,0.42544424685027155,0.17792010120261417
0.7527775774427082,0.2749276069514183,0.8004050320234366,0.5059297745418352,0.41988501296179764,0.18355018353327276
0.755594926737386,0.2765919689457679,0.8024106911231295,0.49875429989793124,0.4140185651130588,0.18965535737894532
0.7580776251663056,0.27827456338847406,0.8045850670911016,0.4918167312382213,0.40795230028324464,0.19614188069736196
0.7603196242710883,0.2799528320134755,0.8068696082143226,0.4851038869013006,0.4017969432566264,0.2028912517143393
0.7624015201351924,0.2816042125127641,0.8092021043823262,0.47861136188220665,0.3956655029544541,0.2097651098192772
0.7643854174938575,0.28320598507135336,0.8115196207440657,0.47234946572967557,0.38967129468837136,0.21661204747483967
