x-axis (g),y-axis (g),z-axis (g),x-axis (deg/s),y-axis (deg/s),z-axis (deg/s)
0.6645965392236726,0.4378476517279553,0.8050979042623346,0.568103169468855,0.3353950082343941,0.4007075497645098
0.6612588030743534,0.4551601535502822,0.8115140386332043,0.5840582507427938,0.33176867281612477,0.3914663717606449
0.6577964434057775,0.47242590064670265,0.8176850994053693,0.6000543491958081,0.32840845873901103,0.38249567360411546
0.6539767152267373,0.48954477946812763,0.8233442128293635,0.6161752162769427,0.3255853530966266,0.37408368406888187
0.6495864092021985,0.5063980590833564,0.8282544396785346,0.6324796232438521,0.3235344900735525,0.36648948242119683
0.6444424910614911,0.5228405904036244,0.8322196037573226,0.6489901070437608,0.3224404683020924,0.35992806932993987
0.6384008779646346,0.538696911432993,0.835091864087436,0.6656854236195197,0.3224267574801534,0.3545582922869361
0.6313630597416396,0.5537619732929406,0.8367756757371121,0.6824973050865037,0.323549891859906,0.35047436572986335
0.6232803856054857,0.5678065581372523,0.8372281003898626,0.6993116693591146,0.32579871043918746,0.347701432043068
0.614155942614661,0.5805868468706632,0.8364557301147083,0.7159740012407401,0.32909846606329773,0.3461952980576003
0.6040440496922515,0.591857090966871,0.8345087480710105,0.7322982582739168,0.3333192311998873,0.3458461808565573
0.5930474803994288,0.6013840028165895,0.8314728461836529,0.7480783849092455,0.3382877111151936,0.3464860309165056
0.5813126093088116,0.6089613290033851,0.8274598384026118,0.76310136167637,0.34380135836999254,0.34789878833166127
0.5690227508945054,0.6144231099366522,0.8225978439306834,0.7771606741242514,0.3496435764688533,0.3498327807075555
0.5563900258601034,0.6176543340736034,0.8170218709354024,0.7900691488148862,0.3555988039281919,0.3520143939555532
0.5436461464035929,0.618598025896876,0.8108655180052058,0.8016702507111314,0.36146637182574903,0.35416213795832274
0.5310325568286991,0.6172582148487138,0.804254343601899,0.8118471423831324,0.3670722094792923,0.35600028088404595
0.5187903961982625,0.6136986659433677,0.7973012520685102,0.8205290431530583,0.3722777111168179,0.35727132785684107
0.5071507620258783,0.6080376635739235,0.7901040288720981,0.827694669546615,0.37698534629237074,0.357746758390089
0.4963257449994802,0.600439487967269,0.7827449477570435,0.8333727650419478,0.38114087406386243,0.3572355981705905
0.48650067170768213,0.5911034798992632,0.7752921863662641,0.8376399204269992,0.3847322838271915,0.3555905705148353
0.4778279338057651,0.5802517374633833,0.7678026393238185,0.8406160356414805,0.38778581630148606,0.3527117385591668
0.4704226983663073,0.5681165254230881,0.76032561915767,0.8424578754527084,0.39035960318907864,0.34854770055372325
0.46436068800468433,0.5549284109603932,0.7529068913409127,0.8433512257192031,0.3925355950419329,0.3430945295848472
0.45967809603974175,0.5409059866634727,0.7455925006986212,0.843502169518035,0.39441052010845234,0.3363927503880219
0.45637356921510785,0.5262478259337604,0.7384319082061385,0.8431279809810672,0.39608663293569946,0.328522716941704
0.45441205808840984,0.5111270644469778,0.731480061278039,0.8424480885376445,0.39766297441128123,0.31959879488802756
0.4537302138369903,0.4956887409116567,0.72479815513743,0.8416754976476711,0.39922778173130846,0.3097627641284881
0.45424291048011967,0.48004978575420426,0.718452993690971,0.8410089942639369,0.40085256643239187,0.29917684239820314
0.45585040243009206,0.4643013376612716,0.7125150106031187,0.840626380700394,0.4025882311927051,0.28801669461622564
0.4584455952349282,0.4485129094362884,0.7070551506239076,0.8406789297399045,0.4044634319889174,0.27646474050330283
0.46192091523520384,0.43273782425795176,0.702140925244575,0.8412871830164315,0.40648522151127087,0.2647040099072821
0.46617431064924764,0.4170193027361741,0.6978320360161528,0.8425381664119878,0.4086418419285169,0.25291272706696205
0.4711139976898373,0.4013965961355077,0.6941759977272405,0.8444840474617181,0.4109073787429029,0.24125973696070377
0.4766616730799462,0.3859106233620289,0.6912041905723886,0.8471422157665084,0.4132478503133777,0.22990082360193678
0.48275403917278054,0.3706086674087096,0.6889287279268568,0.8504967251584552,0.4156281966166987,0.21897591546690964
0.4893426193602745,0.35554780810454895,0.6873404503273646,0.8545009942039559,0.41801955222299864,0.20860712990810548
0.49639196941361846,0.34079689937424035,0.6864082553211345,0.8590816187639226,0.42040614778078245,0.1988975779619023
0.5038765058432535,0.3264370291239757,0.686079857157804,0.8641431071358022,0.42279118600998966,0.1899308337114594
0.5117762680547826,0.3125605187078525,0.6862839505383761,0.8695733064587273,0.42520108528236167,0.18177096745091514
0.5200720017980041,0.29926861963280055,0.6869336389883337,0.8752492514828981,0.4276875772255703,0.17446304742302865
0.5287399939610639,0.2866681433600695,0.6879308897705766,0.8810431373507971,0.4303272825715402,0.16803402817441004
0.5377471017679982,0.2748673139211338,0.689171700606195,0.8868281010701925,0.43321856650894136,0.16249396137196678
0.5470464030466529,0.26397116287725253,0.690551613641931,0.892483496142363,0.4364756822548095,0.15783748382023233
0.5565738498705666,0.2540767937914673,0.6919711916146054,0.897899364855052,0.4402204369189462,0.15404555408664727
0.5662462380821399,0.24526883172074887,0.6933410803127836,0.9029798551609254,0.444571841240653,0.15108742066488356
0.5759607135969866,0.23761534559039987,0.6945863184764877,0.9076453939653674,0.4496344163201685,0.148922808750271
0.5855959277510465,0.23116449100110004,0.6956496176538048,0.9118335137968326,0.4554860069144844,0.14750430813793577
0.595014834333868,0.2259420710680651,0.6964934151690435,0.9154983304585741,0.46216607374997504,0.146779931227575
0.6040689977180683,0.22195015590621334,0.6971005969565637,0.9186087782108917,0.469665490707894,0.14669578854026816
0.6126041631852884,0.21916683955835584,0.697473886428374,0.9211458172349202,0.4779188451992267,0.1471988016109
0.6204667364668537,0.21754714845967965,0.6976339931905852,0.9230989253455814,0.48680012621760876,0.1482393427922657
0.6275107390189422,0.21702504984510454,0.69761670378394,0.9244622617488325,0.49612248642373835,0.14977366246379406
0.6336047570703736,0.21751644394235012,0.6974691687916255,0.9252309356425407,0.5056424920239055,0.1517659410313521
0.6386383924040702,0.21892296287335772,0.6972456909197858,0.9253978193269249,0.5150689446379667,0.1541897907505581
0.6425277544100731,0.22113634497789975,0.697003343036006,0.9249513100497693,0.5240759968488977,0.15702903527400033
0.6452196054253848,0.22404310939998648,0.696797741855029,0.923874366804585,0.5323199164772237,0.1602776164682107
0.6466938795517629,0.22752922627494898,0.6966792726578134,0.9221450317782012,0.5394585149826945,0.1639385205322278
0.6469644294747678,0.23148446685299165,0.6966900063066154,0.9197384994350186,0.5451719735602412,0.1680216788191229
0.646078003135594,0.23580612914012508,0.6968614773789668,0.916630631441268,0.5491836041316909,0.17254088063133302
0.6441115969552692,0.2404018708823605,0.6972134088436831,0.9128026477584686,0.5512789935016197,0.17750983060719389
0.6411684586467712,0.24519144404044524,0.6977533828489937,0.9082465698627452,0.5513220115766327,0.18293758452613593
0.637373105909487,0.25010721203240527,0.6984773776587467,0.9029708678695618,0.5492663235196559,0.18882369459018822
0.6328657764234178,0.2550934387987667,0.6993710256113885,0.8970056845397029,0.5451613256300606,0.1951534771144066
0.6277967237839215,0.260104459803225,0.7004114025453326,0.8904069877796004,0.5391518099616494,0.20189387019526553
0.6223207241508661,0.2651019688804408,0.7015691392382523,0.8832590468472801,0.5314711279596958,0.20899036522813205
0.6165920673495368,0.27005176814722837,0.7028106506871401,0.8756747378498435,0.5224281351623237,0.2163654652707911
0.6107601886084009,0.2749204160508023,0.7041003067310339,0.8677933566188106,0.5123887173341799,0.22391904010275843
0.6049659730293396,0.2796722558653847,0.7054024115845513,0.8597758402963519,0.5017531794296531,0.2315308123890043
0.5993386570760293,0.2842673001555663,0.7066829117899889,0.851797555186637,0.49093117774232076,0.2390650276363915
