x-axis (g),y-axis (g),z-axis (g),x-axis (deg/s),y-axis (deg/s),z-axis (deg/s)
0.23280335496744747,0.34686885249499666,0.3970674345456714,0.48620929072883545,0.7469088472122006,0.8605359933183113
0.2402300353527863,0.35990550774433944,0.35217053215259764,0.4600763759399412,0.7304094870146098,0.8516954565656862
0.24800439705676516,0.37277395019567544,0.30758104533463554,0.4339344174653557,0.7138528270433119,0.8427757205306079
0.2567821635327558,0.3852403286844129,0.26448364907896643,0.40786838519794505,0.6970952287780593,0.8336437996022816
0.2671585692232483,0.397079460036447,0.22406834523904465,0.38198455391941055,0.6800185056388682,0.8241893373419145
0.27963855459867143,0.4080857812647352,0.18751873572982117,0.35643036034985653,0.6625420745091984,0.8143318756828583
0.2946138004266889,0.41808427341425775,0.1559957867328634,0.3314115582962428,0.6446317613623577,0.804025049267913
0.31234728053063665,0.42694083254236703,0.13061476105191405,0.3072046490889574,0.6263047506799924,0.7932575436234034
0.3329653971802364,0.43457153782412533,0.11241406853318832,0.28416295323326496,0.6076305070786298,0.7820509712487936
0.35645723674149665,0.44095026682724525,0.10231611909732467,0.26271521863575625,0.5887278216322381,0.770455099666901
0.382680088410315,0.44611413824947205,0.1010816930903112,0.2433562864442638,0.5697584172119146,0.7585410827649721
0.41137012577957804,0.45016632541960555,0.10926069495090963,0.2266300075368729,0.5509177675091312,0.7463934840080503
0.44215705728267307,0.453275879767772,0.12714326430680883,0.21310526886671805,0.5324239326857215,0.7341019304992328
0.47458158623479235,0.4556743298804929,0.1547159456655598,0.2033465980396548,0.5145052880894415,0.7217532033330234
0.5081146503154708,0.4576489738586028,0.19162786570439003,0.19788131957959,0.49738802488939904,0.7094244632200296
0.54217759350598,0.4595329535060096,0.23717158670564717,0.19716559728880584,0.4812842412261879,0.697178147725603
0.5761626202617147,0.46169237959386217,0.2902825006445704,0.20155188369552743,0.4663813309839409,0.6850588777787872
0.6094530570746107,0.46451095788896524,0.34955935907724967,0.2112602916688839,0.4528332276395024,0.6730924974844058
0.641443075136846,0.4683727347566096,0.4133069059474302,0.2263562005784493,0.4407538864136007,0.6612871627753372
0.6715565960557967,0.4736437275964915,0.4795997390816978,0.24673602034144881,0.43021320249003225,0.649636208484827
0.6992651094856887,0.48065331813594625,0.5463646421080984,0.2721224864790362,0.4212353790165755,0.6381223736526895
0.7241040875152075,0.4896763557191764,0.611476881696857,0.30207018653239326,0.4137995875851431,0.6267228605992577
0.7456876049720997,0.5009169350195691,0.6728645272574829,0.3359812726478978,0.40784261632245783,0.6154146493038156
0.7637206922308221,0.514494772451757,0.728613868493082,0.37313055428457514,0.4032630855779937,0.6041794854491556
0.7780088839279293,0.5304350056550848,0.7770685876355485,0.4126984495789859,0.39992673568908454,0.5930080049459184
0.7884644070968574,0.5486620823716357,0.816915543665755,0.45380966297864533,0.3976722604654409,0.5819025436057464
0.7951084936562081,0.5689981948249588,0.8472508434564242,0.4955750025007358,0.3963171761918233,0.5708782994312555
0.7980694144599503,0.5911664638114197,0.8676212489369604,0.5371334928026775,0.39566327817602004,0.5599626568400421
0.7975760148030877,0.6147987979333801,0.8780377857700105,0.5776919047582804,0.3955013405586709,0.5491926364672229
0.7939467737629909,0.6394480661648534,0.8789605203301155,0.616559014429956,0.39561485175332767,0.5386105904160526
0.7875746923831406,0.6646039472089537,0.8712556728971984,0.6531723105586751,0.39578273529570607,0.528258410928676
0.7789086120383157,0.689711578830114,0.8561283413231985,0.6871154574302866,0.39578116880614106,0.5181706514279711
0.7684318443071861,0.714191945566334,0.8350359361701438,0.7181255404899315,0.3953847651013624,0.5083670651057489
0.7566392272808732,0.7374628320080654,0.8095888185509716,0.7460899147625751,0.3943675018874302,0.4988451416865704
0.7440138840627195,0.7589591441848167,0.7814454716697176,0.7710332740741551,0.39250386426406,0.4895732634226009
0.7310050276952276,0.7781514696890719,0.7522097655721005,0.7930962952089773,0.3895706854651313,0.4804851043192817
0.7180081224502918,0.794561905993081,0.7233374887030039,0.8125078244973349,0.3853501292451348,0.4714758613608819
0.7053485742196023,0.8077764252395234,0.696058372259303,0.8295530154851743,0.37963415213832424,0.4624008340516091
0.6932698927756253,0.8174533434265037,0.6713184252929538,0.8445400617299074,0.3722306226830063,0.4530767613486173
0.681926965071923,0.8233277959679048,0.6497456678775002,0.8577681833351929,0.3629710716900943,0.4432861867842572
0.6713847274179282,0.8252124586399737,0.6316404557516863,0.8694993238586547,0.351719822492419,0.4327849581609228
0.661622155086501,0.8229950593213997,0.6169896973568263,0.8799356183207339,0.33838402633467196,0.42131278362033575
0.6525411312082781,0.8166334693597239,0.6055025274586884,0.8892041415726053,0.32292393042112816,0.4086065681497624
0.6439794408771964,0.8061493163722818,0.596663551293345,0.8973497894844987,0.3053625579437203,0.39441605179390804
0.6357268845551588,0.7916211035811093,0.5897987064938076,0.9043364407202036,0.28579389987564785,0.3785210722841703
0.6275433337218937,0.7731777461897746,0.5841481646049888,0.9100558538523684,0.2643887202844561,0.3607495910338928
0.619177470205661,0.7509932475018266,0.5789405264817931,0.9143431300570773,0.24139716529871663,0.3409954642862765
0.6103849599822305,0.7252829545600237,0.5734628344657099,0.9169970652052849,0.21714753689355507,0.31923482349475135
0.600944906721152,0.696301485725669,0.5671215743000637,0.9178033655818894,0.1920408341377097,0.29553986419081785
0.5906735986517041,0.6643420516878101,0.5594907918122178,0.9165585339208057,0.16654095695299276,0.27008884384372206
0.5794347891122823,0.6297365441804117,0.5503446084569875,0.9130922570467598,0.14116078585611933,0.24317116833630875
0.5671460188505084,0.5928554919650539,0.5396726848075263,0.9072863376796594,0.11644466772019536,0.21518661259588975
0.5537807783702147,0.5541068259848911,0.5276784536320689,0.8990885904200434,0.09294812425211949,0.18663797798840479
0.5393666033118701,0.513932389502335,0.5147611359924553,0.88852063173723,0.071215831136607,0.15811683536807242
0.5239794779758545,0.4728012934303014,0.501483592018716,0.8756790911530293,0.05175907120344349,0.13028242837073592
0.507735175998377,0.4311995509624076,0.4885288886253357,0.860730403297974,0.03503393113404025,0.10383429785742841
0.4907783786673545,0.3896159054856811,0.4766490554014224,0.8438999518125054,0.021421483090740965,0.07947970715637505
0.4732705676475048,0.348524345329734,0.4666098324932778,0.8254568702871865,0.011211074013142966,0.057897461833756665
0.455377778652797,0.3083644116134142,0.45913529289901456,0.8056962115883186,0.004587648368572372,0.03970018283366246
0.4372593162261422,0.2695209699198676,0.45485606258625455,0.784920433323579,0.0016237741177057147,0.02539745929421258
0.41905845985840096,0.2323055448248923,0.4542644919944659,0.7634221856078827,0.00227675069481081,0.015362528185394839
0.4008960339832023,0.19694152449043892,0.45767958544870013,0.7414702162876937,0.006390878103465148,0.009805157861801693
0.38286746927896737,0.16355546271985774,0.4652238083356729,0.7192998362667643,0.013704682891571285,0.008753217815840186
0.36504365692226176,0.13217629845094528,0.4768131048156302,0.6971088418730296,0.023862650683461106,0.01204497970904412
0.34747550610067435,0.1027435772827906,0.4921606110415872,0.675059120607609,0.0364308201943804,0.01933351905548362
0.3302016837102019,0.0751247431230377,0.5107936800835142,0.6532834371072292,0.05091545587535311,0.030103702292351722
0.31325858096761544,0.049140367568590616,0.5320829851545784,0.6318961871937626,0.0667839324319243,0.04370120770990194
0.29669116368149473,0.02459494443683331,0.5552816784884806,0.6110063062417521,0.0834869238119017,0.059371925193659664
0.28056307979471834,0.0013097773066778244,0.5795718970194046,0.5907301097716717,0.1004809764725936,0.0763090161938297
0.26496428251022297,-0.02084627394684266,0.6041153668786337,0.5712017046765147,0.1172505456141711,0.0937040136560844
