x-axis (g),y-axis (g),z-axis (g),x-axis (deg/s),y-axis (deg/s),z-axis (deg/s),energy,movement
0.22488287770281043,0.235487962215256,0.5455506795465099,0.5167405248172539,0.436468855551658,0.3652153314600816,0.10351416787681154,1
0.22659140779165413,0.2289614789845951,0.5650748091179607,0.5222915737053474,0.4259385645336814,0.3598063835694553,0.10921154070908926,1
0.22867726642283767,0.2216554306772261,0.5849523430347658,0.5278263695088518,0.41452270372471095,0.3539768072372938,0.11521920511461599,1
0.23119294676798496,0.21358475335553112,0.6050656928063071,0.5333845882952939,0.4022795860473284,0.3476804633904734,0.12152489617169651,1
0.2341775508973901,0.20479502829337032,0.6252742017195182,0.5390320582301458,0.389299244146598,0.3408700890843266,0.12811174596951078,1
0.23765247785528212,0.1953639720452098,0.6454130584175709,0.5448576992527102,0.3757029627202251,0.33349932815479083,0.13495714478479648,1
0.24161748617610973,0.18540137758927774,0.6652938584294287,0.5509684997434225,0.3616408864501408,0.3255252917473216,0.14203180761974676,1
0.2460477169865011,0.17504745398493293,0.6847069630713613,0.5574827962590544,0.3472876778355213,0.3169115866902994,0.14929918243925439,1
0.25089227957610327,0.164469662718983,0.7034256829122252,0.5645222937425868,0.3328364448089824,0.3076316699367398,0.15671531894796806,1
0.25607486717333056,0.1538582486847157,0.7212122180694663,0.5722033897930063,0.31849137225482843,0.2976723133682268,0.16422928744448906,1
0.26149662949343905,0.14342068698747265,0.7378252012445214,0.5806284357793391,0.3044596344429014,0.28703691712346885,0.17178419810851442,1
0.26704124000980745,0.1333752351576232,0.753028583330971,0.589877580995273,0.2909432182723372,0.27574840683609414,0.17931882492905388,1
0.2725818149956672,0.12394375892592008,0.7666014668794862,0.6000018056094264,0.2781312494023222,0.263851489634889,0.18676978902709948,1
0.27798911242858515,0.11534404817399951,0.7783483557181062,0.6110176475200779,0.26619329829729144,0.25141410756230287,0.19407420744438172,1
0.28314029537028285,0.1077819544691409,0.7881092004686913,0.6229039629032838,0.2552739744413953,0.23852799121073903,0.2011726696828362,1
0.28792750488133795,0.10144379194979367,0.7957686224870912,0.6356008492097547,0.2454889234439594,0.22530826258660697,0.2080123691605368,1
0.2922655454385323,0.0964894731524655,0.8012637834692687,0.6490106524455437,0.23692215590971835,0.21189205903743522,0.21455019336894618,1
0.2960981189277833,0.09304678467209301,0.804590460483014,0.6630008365729755,0.2296244971964619,0.19843615830465497,0.22075556696019544,1
0.2994022416763837,0.09120709202056053,0.8058069095343573,0.6774084418064724,0.22361289784243596,0.18511359358382548,0.22661284719319325,1
0.302190741814604,0.0910226546096202,0.8050350632789169,0.6920458816704568,0.21887042048509783,0.17210926592080458,0.23212309085074703,1
0.3045130206729838,0.09250564296240424,0.8024586077112322,0.7067078752997588,0.21534691546892684,0.15961459032915354,0.2373050445029142,1
0.30645446704796414,0.09562885742317369,0.7983176110852136,0.7211793342143038,0.21296064641000936,0.14782125451466804,0.2421952534795377,1
0.3081349242023569,0.10032804111186717,0.792899644575445,0.7352439982539448,0.2116013123664248,0.13691423251559504,0.2468472360758733,1
0.30970639384801857,0.1065055872344399,0.7865276747866919,0.7486935427186001,0.21113492120399435,0.12706428106414822,0.25132972489314903,1
0.31134980336066115,0.1140353920675404,0.7795453419919882,0.7613367736813087,0.2114107468525827,0.11842024242386641,0.25572403323916965,1
0.3132703295829651,0.12276859111061264,0.7723005022355266,0.7730084208817617,0.21227019267833167,0.1111015686682227,0.26012065774867454,1
0.3156906432427806,0.13253990341692098,0.7651280762277243,0.7835769626968567,0.21355690866610708,0.10519155914219942,0.2646152757273967,1
0.31884161830520047,0.14317428751890315,0.7583333139368903,0.7929508994826098,0.2151271290846152,0.10073185553603857,0.2693043345374009,1
0.322950514864229,0.1544936044424492,0.7521765624659131,0.8010829402046052,0.2168590337600582,0.09771875036573359,0.2742804585159654,1
0.3282272480427218,0.16632301074560069,0.7468605223658861,0.8079716884159351,0.2186600347797857,0.09610181507092327,0.27962791490931116,1
0.33484991680699094,0.17849686654747662,0.7425208016677399,0.8136606032627914,0.2204712136060387,0.09578523053569453,0.28541838313171514,1
0.34295113896792795,0.19086402238156136,0.73922035028413,0.8182342395357284,0.2222685857254269,0.09663200191097114,0.29170726094010085,1
0.35260682638542523,0.20329241180450355,0.7369481121650364,0.8218119920220976,0.22406132879493942,0.0984709713279365,0.29853071706235756,1
0.36382879650533617,0.21567288538047494,0.7356219883311733,0.824539755207405,0.22588746182728534,0.10110624086978397,0.3059036632963559,1
0.37656209839589705,0.22792216932633189,0.7350959528813336,0.8265800605501342,0.22780764265845535,0.10432834125730334,0.31381877164680694,1
0.39068727848431917,0.23998477024602702,0.7351708842634075,0.8281013742596006,0.2298977691567508,0.10792628748841962,0.3222466059231621,1
0.4060272088326168,0.25183364818226567,0.7356083704563138,0.8292673118369976,0.23224099613499438,0.11169958530453475,0.3311368752820901,1
0.42235767698765325,0.2634695675984005,0.7361464774041873,0.8302265255023514,0.23491969342341656,0.11546929050678774,0.3404207529320884,1
0.43942070758083807,0.27491916356283286,0.7365163083552764,0.8311039431885067,0.2380078136165444,0.11908734741229238,0.3500141404990573,1
0.4569394946457544,0.28623185802249584,0.7364581473147348,0.8319939116492822,0.24156411009116813,0.12244360637621746,0.3598217014203351,1
0.4746338233956824,0.29747579734873053,0.7357360350178915,0.8329556583972924,0.24562662809135163,0.1254701178906445,0.36974143910578233,1
0.4922349488974373,0.3087329850872656,0.7341497468019444,0.8340113501003222,0.25020886949418386,0.12814250993647375,0.3796695609504291,1
0.5094990752473942,0.3200938034942781,0.7315433573173031,0.8351468699083852,0.2552979933926693,0.13047846633930937,0.38950535032566186,1
0.5262187910385794,0.3316511777147826,0.7278099153672358,0.8363152405664261,0.2608553353495242,0.13253352413248057,0.3991557671235881,1
0.542231979017393,0.34349472227590755,0.7228921741183931,0.8374423895014839,0.2668193721544329,0.1343945846765505,0.4085395137925164,1
0.5574277842077895,0.35570528624497183,0.7167797310554441,0.8384347226802259,0.2731110071421188,0.1361716781249141,0.41759033730650413,1
0.5717492462077441,0.36835034138159717,0.7095032355435245,0.8391877925640635,0.27964073349517743,0.13798862962204594,0.4262593861232001,1
0.5851922924324641,0.38148060489632857,0.70112647393558,0.8395952464020369,0.2863169302597488,0.13997334446035772,0.43451650173454076,1
0.5978010333971839,0.39512815224934333,0.6917371608245559,0.8395572336771177,0.29305435269128494,0.1422484506075688,0.4423503928296219,1
0.6096596828561601,0.40930608796118945,0.6814372211461106,0.8389875237719325,0.2997818520696361,0.1449229996943016,0.44976771168540247,1
0.6208818349350643,0.4240096489280769,0.6703333075542124,0.837818722347596,0.3064484915487371,0.14808582343116472,0.4567911222364571,1
0.6315981324479838,0.43921845432894924,0.6585282624867644,0.8360051706356204,0.31302745539554877,0.1518009733783983,0.46345651251813674,1
0.6419434809249213,0.45489951777713983,0.646114156598385,0.8335233539877671,0.3195174161323565,0.15610545491169914,0.4698095564693056,1
0.6520449177241665,0.471010610538547,0.6331673858731376,0.830369905943326,0.32594129468652017,0.16100923196573255,0.4759018678600259,1
0.6620110936287046,0.4875035883235604,0.6197461088001965,0.8265575370014455,0.3323426164771382,0.16649726620482688,0.4817870098748159,1
0.6719241080151869,0.5043273315676329,0.6058900908262331,0.8221094181943936,0.33877992359130665,0.17253319849018037,0.48751662637095505,1
0.6818341785291793,0.5214299833712885,0.5916228239610011,0.8170526926856422,0.3453199199639702,0.17906420195295503,0.49313694510292827,1
0.6917573433143077,0.5387602172420153,0.576955623496792,0.8114118624389713,0.35203015653830844,0.186026529808804,0.4986858706205249,1
0.7016761150610856,0.5562673581300034,0.5618932759772273,0.8052027974059875,0.35897206920188396,0.1933513209920519,0.5041908376576606,1
0.7115427609060904,0.5739003301144103,0.5464407070792725,0.7984280443532621,0.3661950599821408,0.20097028136673634,0.50966753816277,1
0.7212847066891899,0.591605599449063,0.530610047367328,0.7910739720248819,0.37373209794008044,0.2088209078422964,0.5151195709212125,1
0.7308114866376343,0.6093244791353776,0.5144274265469938,0.7831100789470207,0.38159707071389704,0.21685096258048053,0.5205389966189368,1
0.7400226691865582,0.6269902981922282,0.4979388562626036,0.7744905269252628,0.3897838977585358,0.2250219391435177,0.5259077178801715,1
0.7488162385592235,0.6445259649928712,0.4812146612010374,0.7651576898693566,0.3982672555326196,0.23331130152776994,0.5311995476828444,1
0.757096956508562,0.6618423664777898,0.46435206116578265,0.7550472751393394,0.40700466865385676,0.2417133327892285,0.5363827844270757,1
0.7647842525520498,0.6788378898677659,0.4474756898378962,0.7440944192024268,0.4159396750698495,0.25023850880371035,0.5414230807711514,1
0.7718191901700728,0.6953991854921167,0.4307360623818009,0.7322400981890401,0.42500575837062826,0.25891140729745493,0.5462863780836982,1
0.7781700343870561,0.7114031333687977,0.41430622217815477,0.7194372333078632,0.43413074689529557,0.26776725878457014,0.5509416797637755,1
0.7838359344092004,0.7267198354958401,0.39837690811633375,0.7056560015575362,0.44324141045250387,0.2768473418624654,0.5553634543376491,1
0.7888482901489877,0.7412163479076128,0.3831505514427525,0.690888043306302,0.4522680423202363,0.2861935305987439,0.5595334915990091,1
0.7932695213090891,0.7547608233050138,0.3688343340660208,0.675149424618787,0.4611488749848459,0.2958424159367246,0.5634420795543964,1
0.7971891637243184,0.7672267598723802,0.3556325639790531,0.6584823126489339,0.46983419786177216,0.3058195203616679,0.5670884231892156,1
0.800717424465061,0.7784971053136565,0.3437387837990551,0.6409553586484593,0.4782899877079664,0.3161341724327377,0.5704802841401526,1
0.8039765344444015,0.7884680119065848,0.33332821663990764,0.6226628020376895,0.48650074401524696,0.32677558540568563,0.5736328790290663,1
0.8070904796068481,0.7970520837924819,0.3245512149658225,0.6037223561463823,0.49447112485469263,0.33771058296977674,0.5765671292902664,1
0.8101739558521212,0.8041810182718583,0.3175282178521671,0.5842720194089123,0.5022260085889848,0.34888323552516765,0.5793074029395746,1
0.8133215978931005,0.8098076051514951,0.3123463630038158,0.5644660450646138,0.5098088156977643,0.3602164397468068,0.5818789256137484,1
0.8165985904235146,0.8139070806696618,0.3090574974886738,0.5444703558879584,0.5172782612981455,0.3716152505991809,0.5843050618903058,1
0.8200336318747089,0.8164778260672684,0.307677104596799,0.5244576845818385,0.5247040339535863,0.38297161432317767,0.5866046768901656,1
0.8236148813888047,0.8175413810941123,0.30818373854656356,0.5046026637949476,0.5321620606141565,0.39417007012540656,0.5887897820351088,1
0.8272890402548329,0.8171417466144469,0.31051885675467084,0.4850770096634113,0.5397299512945379,0.40509396681245696,0.5908636482083618,1
0.8309632531696678,0.815343992480803,0.31458725217016537,0.46604486315307947,0.5474829735368968,0.415631749830182,0.5928195360731098,1
0.8345092465473289,0.8122322390714768,0.3202584476259679,0.44765829209708974,0.555490624598876,0.4256829016766711,0.5946401494228001,1
0.8377691328502848,0.8079070977654703,0.3273693929625236,0.43005293672130956,0.5638136817701618,0.4351631706853791,0.5962978663225647,1
0.8405625099815438,0.8024826340387545,0.3357286855848733,0.4133438215432023,0.5725015723415716,0.44400880255642905,0.5977557480554356,1
0.8426946847032469,0.7960829058178268,0.3451224065451417,0.39762144532183724,0.5815899841083592,0.4521795733168585,0.5989692713183636,1
0.8439659117418542,0.7888381601316408,0.35532155064286525,0.3829483570627781,0.5910987655935219,0.4596604805693652,0.5998886784852093,1
0.8441814507437255,0.7808808130083821,0.36609089459990746,0.36935649156211614,0.6010302804848253,0.46646198153991986,0.60046179754061,1
0.8431620622876188,0.7723413501258783,0.37719896167226225,0.35684555744475344,0.6113684465111112,0.47261870653669497,0.6006371504419735,1
0.8407543580730141,0.763344273962716,0.38842852569552444,0.3453827430955681,0.6220786894340403,0.4781866581889252,0.6003671484112224,1
0.8368402439209188,0.754004220841566,0.3995869176446462,0.3349039317545593,0.6331089755479115,0.48323903033827376,0.5996111663243205,1
0.8313446040305615,0.7444223892493598,0.41051531548218706,0.32531650079940977,0.6443919613100676,0.48786091772447593,0.598338296283248,1
0.824240425236476,0.7346834380738847,0.4210962338787745,0.3165036367419508,0.6558481406587728,0.4921433078780641,0.5965296019103031,1
0.8155507731203758,0.7248530146011563,0.4312585686375013,0.3083299472899324,0.6673897126003169,0.49617682958357073,0.5941797281939044,1
0.8053473729557359,0.7149760685501642,0.4409797696574791,0.30064801313258116,0.6789247676255722,0.5000457623270773,0.5912977642754269,1
0.7937459372089994,0.7050761087180016,0.45028499351263596,0.2933054141994361,0.6903613307201998,0.5038227747365301,0.5879073051906245,1
0.780898736063561,0.6951555395636755,0.4592433741347114,0.28615171538315726,0.7016108255015127,0.5075647568166942,0.5840457096896843,1
0.7669851791078929,0.6851971413448167,0.46796176743370077,0.27904493078024634,0.7125906527723707,0.5113099635598009,0.5797626012164986,1
0.7522013441282706,0.6751666284702431,0.47657641287425945,0.2718571038966204,0.7232257953001388,0.5150765374959556,0.5751177045307893,1
0.7367494360408579,0.6650160863153657,0.4852429500658593,0.2644788061532062,0.7334496130654452,0.5188623650548907,0.570178148415449,1
0.7208280602322914,0.6546880145941459,0.49412526329331946,0.2568225040911794,0.7432041862937914,0.522646158447223,0.5650153932470017,1
0.7046239361960868,0.6441197214477218,0.5033837967274317,0.24882482374125237,0.7524406054888688,0.5263896152063026,0.5597019595725587,1
0.6883053045989478,0.6332478660806842,0.5131642209280064,0.24044774448148326,0.7611194636706836,0.5300404559504318,0.554308139748327,1
0.6720169236539277,0.6220129516778294,0.5235874480707534,0.23167873699407962,0.7692115360657715,0.5335360746084606,0.5488988694807158,1
0.6558763679667805,0.6103634926051323,0.5347418438781435,0.2225298867121184,0.776698375994091,0.5368074900841628,0.5435309207951756,1
0.6399714101995857,0.5982594903743174,0.5466780871175472,0.21303613296153132,0.7835724568097661,0.5397833017078347,0.5382505541026623,1
0.6243585081212301,0.5856748643603708,0.5594066527899901,0.20325285438489063,0.7898366067456486,0.5423934265058272,0.5330917365692163,1
0.6090626554831156,0.572598647456689,0.5728975558589534,0.19325306623044675,0.7955027477097527,0.5445724999699474,0.5280749990548483,1
0.5940789107753824,0.5590350153008485,0.5870819125631791,0.1831244247475292,0.8005902045358706,0.5462629039645863,0.5232069666710459,1
0.5793757296544862,0.5450024427192189,0.6018550134215067,0.1729660919356042,0.8051239488611355,0.5474174113654305,0.5184805606583694,1
0.564899877759296,0.5305323644653593,0.6170807784712374,0.1628853920783578,0.8091330304564267,0.5480014090414146,0.5138758338135273,1
0.5505823770253317,0.5156676410211535,0.6325974958029655,0.15299417686691869,0.8126492080085262,0.5479946162483387,0.5093613698946867,1
0.5363448259839403,0.5004609724567847,0.64822458236246,0.14340492297534793,0.8157055817555974,0.5473922017733273,0.5048961508300318,1
0.5221055969975456,0.48497327952978736,0.6637698917637025,0.13422674418895317,0.818334988475064,0.5462052408397221,0.5004317753527774,1
0.5077857299759408,0.4692720528055628,0.6790370258772093,0.12556161073656175,0.8205680673539276,0.544460516209051,0.4959148997300257,1
0.4933145796996936,0.4534297399084614,0.6938322407401468,0.11750107557916997,0.8224311426616648,0.5421997080474352,0.4912897659970304,1
0.47863527238082537,0.4375223112694985,0.7079707461604691,0.11012372416607537,0.823944249992628,0.5394780111058816,0.4865006856009256,1
0.4637098258705949,0.4216281310456285,0.7212823332433862,0.10349344581417536,0.8251196655241687,0.5363621928276513,0.4814943562395488,1
0.4485235618036446,0.40582714988730545,0.7336162868073317,0.0976585252611548,0.825961189536688,0.5329281102512328,0.47622190619718596,1
0.4330883344340268,0.3902003012519563,0.7448454911412257,0.09265149669765542,0.8264642608123323,0.5292577585417078,0.4706405825078871,1
0.41744415860367384,0.37482892033248255,0.7548695659766239,0.08848967844637838,0.8266168155213,0.5254360073948378,0.4647150253748947,1
0.4016589964143064,0.359794061345405,0.7636168326484087,0.08517627798299304,0.8264006940154249,0.521547246576317,0.4584180997445213,1
0.3858266836671546,0.34517572163116556,0.7710449731758376,0.08270189321248121,0.8257933443668034,0.517672169065925,0.45173128391545936,1
0.3700631647121037,0.33105208125262725,0.777140410611939,0.08104614837439968,0.8247695581988186,0.5138848623887267,0.4446446426529062,1
0.35450131471873614,0.3174988393696931,0.7819166117556684,0.08017915089628953,0.8233029962275682,0.5102502869157592,0.4371564366455103,1
0.3392846848249961,0.3045885659816904,0.7854115742341,0.08006250516659745,0.8213673326649205,0.5068221485310441,0.42927243968256207,1
0.3245605725058014,0.29238978662855114,0.7876846760425271,0.08064979172506487,0.8189369893342324,0.5036411680118686,0.4210050483725656,1
0.31047292379621877,0.28096543632332044,0.7888129150513472,0.0818866670044845,0.8159876294794126,0.500733814707475,0.4123722757542363,1
0.29715565653637804,0.2703704850977235,0.7888864732688232,0.08371095340564287,0.8124967679150626,0.4981116572226652,0.4033967194699828,1
0.2847269545994945,0.2606489365175761,0.7880035955067088,0.08605315690724241,0.8084449229775207,0.4957715115704989,0.394104587534595,1
0.27328487694014675,0.2518308309650685,0.7862649817255648,0.08883771593170936,0.8038176059274801,0.4936964906259877,0.38452485092778316,1
0.2629043119913721,0.24393007220360055,0.7837681761734819,0.09198500670207195,0.7986081155889027,0.4918579026573279,0.3746885735287599,1
0.2536350238666495,0.2369437016504202,0.7806026630662499,0.09541384727365218,0.7928206798267321,0.4902177924570936,0.36462844791839,1
0.24550042411786346,0.23085278305715437,0.7768464295969978,0.0990440915862084,0.7864731301074508,0.48873184144074816,0.3543785421488955,1
0.238496831090285,0.2256245927206304,0.7725645822772874,0.10279893918579126,0.7795981828899956,0.48735236134297105,0.3439742396425826,1
0.23259329046104363,0.22121554072981794,0.767810238029891,0.10660676168494626,0.7722426270320083,0.48603119144048057,0.3334523337671617,1
0.22773235555916854,0.21757420581322537,0.7626274582654117,0.1104024735006005,0.764464240905759,0.48472238658965316,0.3228512219660261,1
0.22383237847281778,0.21464395272730735,0.7570555767118103,0.1141286779475503,0.7563269169424159,0.48338463179029595,0.3122111328932226,1
0.22079174795466075,0.21236472954249122,0.7511339989055174,0.1177369600836241,0.7478950258897217,0.4819833403350124,0.3015743147122854,1
0.21849516244735845,0.21067381705605406,0.744906490570761,0.12118973973899373,0.7392283199422333,0.4804923988011478,0.2909851140210038,1
0.21682156833136546,0.20950556981651358,0.7384241303001194,0.12446299608151577,0.7303785752597598,0.4788955141819225,0.2804898827547548,1
0.2156529635212224,0.20879052405101242,0.7317464196264157,0.12754990633118463,0.7213887515867574,0.4771870930463289,0.2701366644320057,1
0.21488297215809177,0.2084545277767826,0.7249404245230429,0.13046505024433502,0.7122948238167378,0.4753725502270881,0.2599746303237394,1
0.21442400069553746,0.2084186300195215,0.7180781814504479,0.13324842853583785,0.7031297760551576,0.4734679300411792,0.2500532592269959,1
0.21421191263108078,0.2086002855832975,0.7112328856495801,0.13596826151919314,0.693928696428048,0.4714987496091796,0.24042127981531244,1
