x-axis (g),y-axis (g),z-axis (g),x-axis (deg/s),y-axis (deg/s),z-axis (deg/s),energy,movement
0.23340916102151865,0.16017605119679612,0.03848620790121771,0.0862148846412388,0.5520846178825854,0.8553322371235363,0.18156356048413577,1
0.28077092495492983,0.16844768428310147,0.04464465506303635,0.07246971034218927,0.5108385254127374,0.836359887095537,0.15837262438674343,1
0.3285096128642975,0.17797958561150765,0.05535551049552572,0.06240422038088146,0.47340874243392916,0.818973873386807,0.14041689140349722,1
0.37565337356518635,0.18884448386727484,0.07004364916972756,0.05593038936624102,0.4401911633550289,0.8033996456415567,0.12790257977041689,1
0.4213713984469843,0.2011006412041915,0.08808783263526941,0.05289099916086262,0.4113689519741788,0.7897362186202532,0.12087240322186078,1
0.4649955902134634,0.2147871492442129,0.10884390557856656,0.05307148846053405,0.3869319385658094,0.777969435884894,0.11921033406434901,1
0.5060297295812103,0.22991993887863024,0.1316675863264462,0.05621227328966911,0.36670623056513474,0.7679885202884718,0.12265318375904295,1
0.5441460366985233,0.24648888920575815,0.15593589738427774,0.0620208741588118,0.3503900688643377,0.7596045638246001,0.1308080716820578,1
0.5791705781943569,0.26445624084505215,0.18106618129217322,0.07018333550016594,0.33759200972306774,0.7525698436751247,0.14317460679150193,1
0.6110603113988644,0.28375634174831954,0.20653162250326412,0.0803745858248511,0.32786803898975186,0.7465970740411211,0.15917045500957444,1
0.6398753016255664,0.3042966443369895,0.23187235489634278,0.09226754081973448,0.32075502502424996,0.7413778822131437,0.17815890449653715,1
0.6657496242525475,0.32595985212299877,0.2567016160218811,0.10554087854676064,0.31579878052244736,0.7365999282342022,0.19947706237636434,1
0.688863823493,0.34860713764425033,0.28070697477729367,0.1198855068166667,0.31257578228235194,0.731962190505203,0.2224634060846765,1
0.7094209099028613,0.3720823570086075,0.3036473105314193,0.13500979927023607,0.3107082272452399,0.7271880415908405,0.24648355414382903,1
0.7276270704677876,0.3962171423252527,0.32534681830545537,0.1506437075903037,0.30987258851221594,0.7220358572254698,0.27095329812555846,1
0.7436776712509429,0.42083668186366713,0.3456876907022803,0.16654187193512704,0.3098022179784198,0.7163070395262844,0.2953581342165696,1
0.7577487081802842,0.44576592946048227,0.3646031384108755,0.18248585554973384,0.3102848636485628,0.7098514773518948,0.319268735756721,1
0.7699935040019185,0.4708359251027119,0.3820720151144654,0.19828562531938607,0.3111562434527964,0.7025705825293017,0.3423520068682376,1
0.7805440930672258,0.49588984353536475,0.398115621571159,0.2137803913718533,0.3122910224883454,0.6944181004850453,0.36437754445510034,1
0.789516382971336,0.5207883188907819,0.41279650550607855,0.22883891041626245,0.3135926333159756,0.6853988890094369,0.3852195070046143,1
0.7970178872596209,0.5454135583672403,0.4262184860577852,0.2433593520472505,0.314983318638415,0.6755658121242701,0.4048540418525636,1
0.8031566563836994,0.5696718072980707,0.43852685694396204,0.257268823199386,0.3163955535589044,0.6650148519620915,0.4233525578139809,1
0.8080500450084004,0.5934938823320266,0.44990775834173935,0.27052263818119254,0.31776565781849303,0.6538785434888068,0.44087124837655006,1
0.8118321381743471,0.616833720653717,0.460585929958071,0.283103404317626,0.31903000757358824,0.642317902440615,0.45763737342627697,1
0.8146589486121971,0.6396651403705197,0.4708203184904397,0.29501996272300485,0.32012387523026614,0.6305131282601808,0.4739328958976157,1
0.816710811489905,0.6619772107489164,0.48089722998550616,0.3063061812229365,0.3209826164212517,0.6186534817444823,0.4900761442609723,1
0.8181917068401304,0.6837687589855439,0.4911208848780541,0.3170195475169466,0.3215447075993057,0.6069268269274315,0.5064022318226415,1
0.8193255338763008,0.7050425920819154,0.501801370407207,0.327239463731152,0.3217560130783243,0.595509374384703,0.5232430077750132,1
0.8203496181548325,0.7258000021615352,0.5132401131080998,0.33706510762726133,0.32157460694537277,0.5845561713231605,0.5409073401867515,1
0.8215058909664564,0.7460360616969731,0.5257131544378573,0.34661270869983685,0.320975468489525,0.5741928591957682,0.5596625343627801,1
0.8230302233896126,0.7657361052340755,0.5394527683891761,0.3560120953854824,0.3199543960230927,0.5645091654032162,0.5797176676598574,1
0.8251404114482085,0.7848736447122772,0.5546283356631341,0.3654024073769647,0.3185305487453614,0.5555545134601994,0.6012095705869351,1
0.8280234174889549,0.8034098008164583,0.571327807446304,0.3749269353583843,0.31674714535629583,0.5473360306183725,0.6241921013384827,1
0.83182270718358,0.8212941842032873,0.5895414135145727,0.3847271435828705,0.31467003027081564,0.5398191104833754,0.6486292456896965,1
0.8366267829020848,0.8384670419253928,0.6091494023923987,0.39493603929270166,0.31238405486038623,0.5329305540447793,0.674392427247183,1
0.8424601549279518,0.8548623884095841,0.6299155378584737,0.40567116849523877,0.30998748485923605,0.526564164308108,0.7012622375894672,1
0.8492779114928128,0.8704117622982487,0.6514878326438635,0.4170276299134921,0.3075848957437052,0.520588507420778,0.7289345976758509,1
0.8569647474194301,0.885048205017427,0.6734075735457736,0.42907159150042906,0.3052792155862538,0.5148563841250011,0.7570311495460459,1
0.8653388814095545,0.8987100633922095,0.6951270701807694,0.44183484560356934,0.30316369336075644,0.5092153953316819,0.7851134616922045,1
0.8741608338109464,0.9113442784454726,0.7160357417926527,0.4553109307786566,0.30131459960085105,0.5035188573665209,0.8127004253326987,1
0.8831465875245398,0.9229089169878462,0.7354931886470734,0.46945327027315675,0.2997854051459392,0.4976362514718953,0.8392880359163706,1
0.8919842247798142,0.9333748094797666,0.7528669188602236,0.48417563342144004,0.2986030393675191,0.49146239934796143,0.8643706081657454,1
0.9003527704499933,0.9427262680897737,0.7675716489284472,0.4993550361767568,0.29776661684407385,0.4849246506937071,0.8874623760375304,1
0.9079417427777898,0.9509609762065241,0.7791067754501378,0.5148369887799427,0.2972487591476306,0.4779875423836882,0.9081183906214634,1
0.9144698306238079,0.9580892585526997,0.7870887860951586,0.5304427974861124,0.2969993411664935,0.4706546200885453,0.9259536548033297,1
0.9197011628356974,0.964133027646912,0.7912759362446503,0.5459784506260366,0.29695117909275215,0.46296737254728937,0.9406595243205722,1
0.9234578294902305,0.9691247171447477,0.7915833015069696,0.5612444800594034,0.2970268966356209,0.45500148640506055,0.9520165563112216,1
0.9256277195196797,0.9731064425947409,0.7880871997643983,0.5760461015378862,0.29714603577152904,0.44686085580593143,0.9599031892339074,1
0.9261673520134861,0.9761295069626433,0.7810188747685356,0.5902029152236855,0.29723149225384327,0.4386699473770419,0.9642998783989132,1
0.9251000487863968,0.9782542461455376,0.7707481714491381,0.6035574951224073,0.2972145713760224,0.430565209671533,0.9652885723986785,1
0.9225103041119868,0.9795501221177005,0.7577586494502604,0.6159823043037717,0.2970383194967822,0.4226862255258286,0.9630476789162493,1
0.9185354271627315,0.9800959113300134,0.7426161468117303,0.6273845231758985,0.2966591887637169,0.41516724688168477,0.9578429152375155,1
0.9133554913575147,0.9799797867515935,0.7259332125301594,0.6377085512664811,0.29604742739119616,0.40812964117621653,0.950014652543192,1
0.9071824298442454,0.9792990681693317,0.7083320648685318,0.6469361219581368,0.2951867691518745,0.40167564204445044,0.9399625301227204,1
0.9002488636411583,0.9781594509309748,0.690408792603093,0.6550841396944331,0.2940739776260594,0.3958836647779483,0.9281282266673649,1
0.8927970024140999,0.9766736161316656,0.6727014090248525,0.6622004991929532,0.29271859266760974,0.39080533456582234,0.9149773261898166,1
0.8850677786604424,0.9749592188697802,0.6556641122088619,0.6683582718137854,0.2911428993166473,0.38646427667155187,0.9009812061757085,1
0.8772903382684594,0.9731362863020893,0.6396496917202591,0.6736487475636413,0.2893818123046298,0.38285662038559526,0.8865998100740708,1
0.8696721586489777,0.9713240311830402,0.6249014054597078,0.6781739048874862,0.28748217086297634,0.3799530732249697,0.8722660536846784,1
0.8623903439949727,0.9696370553280541,0.6115547855213364,0.6820389393043856,0.28550095174942575,0.37770233817568866,0.8583724666353301,1
0.8555848953129884,0.9681809472729177,0.5996487436106811,0.685345499521846,0.28350213222462145,0.3760355803676343,0.8452604988019807,1
0.8493548005639269,0.9670473954510191,0.5891441835037667,0.6881862343197518,0.28155228792426024,0.3748715977957823,0.8332127405257668,1
0.8437575604833468,0.9663091094066265,0.5799473474872585,0.6906411321414228,0.27971537079668446,0.37412230917306943,0.8224481275749469,1
0.8388123007518264,0.9660149954459263,0.5719345920992182,0.6927759428732115,0.2780473622959378,0.37369814190314526,0.8131200382912456,1
0.8345060460274538,0.966186104382655,0.5649753549052793,0.6946427299713566,0.2765915612459338,0.373512895027792,0.8053170504280772,1
0.8308022040843225,0.966812835127818,0.5589506981689966,0.696282343724286,0.27537513348943554,0.3734876841017569,0.7990660154344247,1
0.8276499755378703,0.9678537646452998,0.5537657878200094,0.6977283692745463,0.27440727844504,0.37355366287860237,0.7943370321684409,1
0.8249933517644188,0.9692363299625417,0.5493557064739485,0.6990119201141121,0.27367905458783975,0.3736533584215091,0.7910498612543307,1
0.8227785788584219,0.9708594452386926,0.5456848810994303,0.7001665463444444,0.2731646485060047,0.37374062639396727,0.7890813139580407,1
0.82095936180514,0.9725980018492213,0.5427410441307149,0.701232523182602,0.2728237306613022,0.3737793932424731,0.7882731717817627,1
0.819499558761251,0.9743090624897468,0.5405250873517189,0.702259880645035,0.27260452564256404,0.37374146723731705,0.78844023949704,1
0.8183735722807379,0.9758394164069983,0.5390384839875002,0.7033097159933602,0.2724472999475828,0.37360375379969324,0.7893781984700186,1
0.8175649658616296,0.9770340213426499,0.5382701405515503,0.7044535682391159,0.2722880712252286,0.37334520834244794,0.7908710017926951,1
0.8170639204853194,0.9777447426774598,0.5381845072363143,0.7057708911911456,0.2720624059376408,0.37294382790407915,0.7926976309097044,1
0.8168640096820008,0.9778387437006529,0.5387124535894339,0.7073448979296384,0.2717091693161384,0.37237395135556767,0.7946381087006196,1
0.8169585586359961,0.9772059066373889,0.5397458568534236,0.7092572308665419,0.27117404301795195,0.37160412039582097,0.7964787309279203,1
0.8173367250986684,0.9757647680212358,0.5411362266917342,0.7115820185822723,0.2704125831313084,0.3705957392129385,0.7980165324793875,1
0.8179794503366306,0.9734666021522015,0.5426971914941626,0.7143799131485582,0.26939259832577617,0.36930273843044575,0.7990630442888238,1
0.8188555205992866,0.9702974471799075,0.5442104018635628,0.7176926721279704,0.2680956952078264,0.36767238464762325,0.7994474201152264,1
0.8199180790678057,0.9662780218273425,0.5454343601319281,0.7215387742430533,0.2665179419785319,0.3656472777849871,0.7990190198865439,1
0.8211019948598055,0.9614616218915178,0.5461157651342401,0.7259104529687348,0.2646697049251649,0.3631684510189293,0.797649529792518,1
0.82232250199978,0.9559302075096158,0.5460030134654654,0.7307724119953786,0.2625747817304635,0.36017934903278676,0.795234681563285,1
0.823475437872913,0.9497889850534469,0.5448613826015808,0.7360623601036388,0.26026897101918833,0.3566303353302721,0.7916956080119399,1
0.8244392429915804,0.9431598484372997,0.5424891171546642,0.7416933763724951,0.25779818093890533,0.3524832952587953,0.7869798430049363,1
0.8250786949573402,0.9361740807692341,0.5387332584285802,0.74755799542534,0.25521612196265875,0.3477158777645851,0.7810619456682458,1
0.8252502105216861,0.9289647398911857,0.533503746944805,0.7535337915909904,0.25258160086678577,0.3423249614288422,0.7739437046395747,1
0.8248084721782549,0.9216591660284301,0.5267841954450422,0.7594901423708248,0.24995547334796422,0.3363290254510447,0.7656538616895091,1
0.8236140716653364,0.9143720507933782,0.5186378443137062,0.765295766090932,0.24739742013347985,0.32976922512769274,0.7562472872996671,1
0.8215417654097786,0.9071994822233873,0.509207612011374,0.7708265595771574,0.24496283622065965,0.32270908476237253,0.7458035449725644,1
0.8184888051548505,0.9002143214494602,0.49870982577145123,0.7759732170177781,0.2427001922859936,0.315232812328561,0.7344247961973904,1
0.8143826766278567,0.8934631685211181,0.48742205150372,0.7806481013689598,0.24064918650501887,0.3074423100783632,0.722233023077616,1
0.8091874958102525,0.8869650377848254,0.4756662230408677,0.7847908736973608,0.23883985035489894,0.2994530182290438,0.7093665786875135,1
0.802908323705191,0.8807117016651429,0.4637887708133055,0.7883724664722153,0.23729255759500723,0.2913888021539826,0.6959761136102418,1
0.7955928134485339,0.8746695130003954,0.45213955959847524,0.7913971083950397,0.23601870014016843,0.2833761803444429,0.6822199677235838,1
0.7873299113274908,0.8687824241433876,0.44105122288887827,0.7939022577887873,0.23502171722135679,0.27553827267204606,0.6682591558752792,1
0.7782457332461966,0.8629759037262148,0.43082008694943214,0.795956460474783,0.2342982226817792,0.26798889719820423,0.6542521114539516,1
0.7684971123113177,0.8571614845801462,0.42168948942067486,0.7976552978865348,0.23383912967793388,0.2608272366851895,0.6403493801600921,1
0.7582635592072136,0.8512417114964319,0.41383606103167037,0.79911571981699,0.2336308343482344,0.2541334292417104,0.6266884751676097,1
0.7477384390982988,0.8451152644846167,0.40735950936208004,0.8004691585484549,0.23365659446758477,0.24796532792480475,0.6133891126375797,1
0.7371200244194575,0.8386820170340031,0.4022765466424912,0.8018538928740939,0.2338981671043325,0.24235655196524303,0.6005490422301016,1
0.7266027710607644,0.831847776065566,0.39851967125824805,0.8034071649197649,0.2343375648052169,0.23731584867492708,0.5882406706530688,1
0.7163688329942275,0.8245284627078722,0.395941371075064,0.8052575432650735,0.23495854625049176,0.23282771779032319,0.5765086479428763,1
0.706579677428258,0.8166535344647198,0.3943238855885946,0.8075179710570487,0.2357473086296669,0.22885421307630965,0.5653685473587525,1
0.6973677994171308,0.8081685053568932,0.39339401942544205,0.8102798463385227,0.236691902292783,0.22533780452016802,0.5548067223901257,1
0.6888289022812173,0.7990364706403271,0.3928418277417611,0.8136083751458514,0.23778017143212327,0.22220513864417257,0.5447813708544017,1
0.6810153262801678,0.7892385812449263,0.3923414610754124,0.817539340433907,0.238996472332143,0.21937147885064834,0.535224779231203,1
0.6739317653166719,0.7787734583794973,0.39157215542453927,0.8220773526952853,0.2403178915777799,0.21674556047571764,0.526046663323422,1
0.6675342597380076,0.7676556118107872,0.39023735638745277,0.8271955868173042,0.24171100339400461,0.2142345668739477,0.5171384672306711,1
0.661733055927293,0.7559130244238231,0.38808034316025625,0.8328369578080167,0.2431302178160178,0.21174892590800976,0.5083784345554695,1
0.6563992730936479,0.7435841702133877,0.38489543700108675,0.8389166456860846,0.24451842576141117,0.20920664903074315,0.4996372265556883,1
0.6513746075294129,0.7307148246461821,0.3805347379632891,0.8453258466035038,0.2458100284445452,0.206536999643444,0.4907838339797228,1
0.6464827718345734,0.7173550908339662,0.37491104649454626,0.8519365934905236,0.24693575528582695,0.20368337775792913,0.48169151433721114,1
0.6415412080614828,0.703557071672131,0.36799798138022793,0.8586074427733857,0.24782817874811044,0.20060541036545762,0.4722434853951678,1
0.6363718843858944,0.6893735209206726,0.35982825031149973,0.8651897634383016,0.24842671313723752,0.19728029998784333,0.46233811895249255,1
0.6308105545519884,0.6748575852954154,0.35049065362180437,0.8715343054891618,0.24868117534835274,0.19370348994104863,0.4518934057845972,1
0.6247144770320222,0.660063455438223,0.34012589036880464,0.877497685317393,0.2485535645508887,0.18988866938796964,0.44085050158066746,1
0.6179689973730144,0.6450474850161079,0.32892081830054004,0.8829484174486288,0.24801835601226457,0.18586709740481452,0.4291762124806871,1
0.6104934193466031,0.6298692142799407,0.31710069253502227,0.8877721493543583,0.24706206112655377,0.18168620387842968,0.41686433459623456,1
0.602246221041005,0.6145917812478507,0.30491915156670685,0.8918758180760727,0.24568291738649847,0.17740744457219554,0.40393582135911915,1
0.5932291055787949,0.599281390332127,0.2926462497592324,0.8951905397629736,0.24389130974774068,0.1731034511112517,0.3904378121383215,1
0.5834889242872187,0.5840057771790025,0.2805554331082768,0.8976731532743715,0.2417110044667086,0.16885460987081868,0.3764416117447832,1
0.5731164275927952,0.5688318919820499,0.26891076154793303,0.8993064458602985,0.23918071064535773,0.16474529792241885,0.3620397598823199,1
0.5622411621518519,0.5538232409307666,0.2579557198262431,0.9000981720353962,0.2363550965485254,0.16086006539084136,0.34734236943698005,1
0.5510225385502497,0.5390374007150573,0.24790461364371655,0.9000790265247377,0.2333043271557541,0.1572800561496991,0.33247294052312054,1
0.5396379247703132,0.5245241237089325,0.23893696444803023,0.8992997534159456,0.2301114841209184,0.15407989478243148,0.3175638720394107,1
0.5282693199361244,0.5103242215343325,0.23119472653362147,0.8978275808941113,0.22686778151705247,0.15132515216368045,0.3027518936711549,1
0.517090510877325,0.4964691490174641,0.2247817553130365,0.8957421787390983,0.2236661148577908,0.14907037233062775,0.28817362929980767,1
0.506256504155994,0.48298102044912655,0.21976485440867127,0.893131350602089,0.22059397068448972,0.14735754516450766,0.27396147904848633,1
0.49589650844418526,0.46987274765029735,0.2161759053100304,0.8900866941454467,0.21772692558915135,0.14621487480026443,0.26023997389484177,1
0.4861109840508238,0.4571480943634085,0.21401490412050814,0.8866994852832867,0.21512382434014263,0.14565573038557228,0.24712271671413857,1
0.47697246950164696,0.44480163286429125,0.21325398481102825,0.8830570564122158,0.2128243045336758,0.14567775856516807,0.2347099799386359,1
0.468529210665524,0.43281877846251676,0.2138425352365131,0.8792399219592003,0.2108487716419584,0.14626225027172904,0.22308698600498256,1
0.46081021497820585,0.4211761789161588,0.21571330301192299,0.8753198428783823,0.20920039948729016,0.14737394216884248,0.21232285552625121,1
0.4538303389341311,0.4098426939945803,0.21878905780820967,0.8713589210107414,0.20786838816369266,0.14896146146379358,0.2024701723945089,1
0.4475943714841827,0.39878102517155595,0.22298906596617066,0.867409695467343,0.20683163296173282,0.1509585864338017,0.19356508693267027,1
0.44209964986372247,0.38794982163628744,0.22823446054577584,0.8635160958865534,0.2060621325687173,0.1532864130035632,0.18562785918886524,1
0.4373373265951867,0.3773058992001465,0.23445163697415067,0.8597150048534207,0.20552780319242664,0.155856416899315,0.17866373513080924,1
0.43329279482395827,0.3668061482391193,0.24157310695675016,0.856038106841723,0.20519473010178196,0.15857430206718548,0.17266404868839397,1
0.42994585294362,0.3564088109327255,0.24953577472360425,0.852513669185196,0.2050291386551704,0.16134444079565233,0.16760745141567984,1
0.42727097369037337,0.34607405091084853,0.2582772390183304,0.8491679250199758,0.20499941098496668,0.16407464693039267,0.16346118748584568,1
0.4252376975256975,0.3357640425709863,0.2677312486625957,0.8460258097391058,0.2050783072830137,0.16668098707577161,0.16018235281442794,1
0.42381089802427685,0.3254430653588181,0.2778236179527018,0.8431109226529109,0.2052452559801038,0.16909232473893335,0.1577191010560481,1
0.42295061505871057,0.315078189984166,0.2884696583298615,0.8404447128344414,0.2054882897592935,0.17125429576124046,0.15601178366110777,1
0.4226113526692586,0.3046410164136498,0.2995736377612817,0.8380449966641396,0.20580505354126508,0.17313241511687788,0.15499403381225646,1
0.4227410978438455,0.29411058260437944,0.311030190908797,0.8359239957270507,0.2062023697765776,0.17471401831191646,0.15459382283125958,1
