x-axis (g),y-axis (g),z-axis (g),x-axis (deg/s),y-axis (deg/s),z-axis (deg/s),energy,movement
0.464340353055555,0.13149114512675408,0.5866406050305216,0.5662216596440687,0.5713809822123512,0.5007944200613305,0.4201915290547304,1
0.45339315147053977,0.13044021009494416,0.5830014746749613,0.5573553154441858,0.5834029804992078,0.507076080997329,0.4192739144592849,1
0.4403615421528194,0.12911455898448168,0.5809029776060166,0.5483514438022531,0.5960305895076657,0.5144890674222866,0.4197094905116684,1
0.42523747889437724,0.12745497795370384,0.580612199959581,0.5393084338520274,0.6091006806912641,0.5231569550188773,0.42168850393526996,1
0.4080767851240497,0.12540198257462257,0.5823534326979011,0.5303312638187171,0.622418567339005,0.5331762272471664,0.4253669542009814,1
0.3890028992058246,0.12290038181719663,0.5862913105525005,0.5215323207431024,0.6357599338340924,0.5446094125670159,0.430858185360859,1
0.36820726923853403,0.1199047947175921,0.5925154030220391,0.5130323618478144,0.6488743933082206,0.5574797173718227,0.43822546434017207,1
0.3459460585566321,0.1163858400595012,0.6010275521250728,0.5049615637355591,0.6614906427871459,0.5717675103990211,0.4474759658170084,1
0.32253312787578864,0.11233656218871824,0.6117332224766009,0.4974605301708926,0.6733231504806033,0.5874088809824383,0.45855654961400083,1
0.29832958726259295,0.10777852013142165,0.6244378264216189,0.4906810453112768,0.6840803258860702,0.6042963452552196,0.47135165705497994,1
0.2737304777943913,0.10276688087697072,0.6388484335878173,0.4847862874297688,0.6934741206630027,0.6222816309243702,0.48568356996975975,1
0.24914930656576947,0.09739384153043107,0.6545806503091881,0.47995015936196633,0.7012309090899959,0.6411803520065089,0.5013151738939289,1
0.22500124389657597,0.0917897689174444,0.6711699790329232,0.4763553415436567,0.7071032742623761,0.6607783015776674,0.517955251223977,1
0.2016858415344559,0.08612158595094431,0.6880867575158903,0.4741896447650039,0.7108820290414127,0.6808390445618355,0.5352662077730631,1
0.17957016683450536,0.08058814108849041,0.7047538095364552,0.47364027208809967,0.7124075338230068,0.701112476986252,0.5528740152904394,1
0.15897328642061184,0.0754125617109823,0.7205660987675294,0.4748857374874664,0.7115792511073571,0.721344019682871,0.5703800411538547,1
0.14015309055944644,0.07083190295331705,0.7349118184783647,0.47808544676054304,0.7083625761962351,0.741284116189753,0.5873743420767928,1
0.12329649160167774,0.0670847291926154,0.7471943491614809,0.4833672902909617,0.7027923061802059,0.7606976933684153,0.6034499273578535,1
0.10851393996734444,0.0643975480341915,0.7568543343556134,0.4908139649968932,0.6949725668307873,0.7793732179800654,0.6182174529756433,1
0.0958388685983949,0.06297119350632067,0.763390832343177,0.5004490797442573,0.6850734454433454,0.7971309548328733,0.6313197922738341,1
0.08523214010236103,0.06296829557031434,0.7663802466954381,0.5122243694837968,0.6733248046782796,0.813830017175465,0.6424459410398352,1
0.07659104116191169,0.06450289298274141,0.7654916846540516,0.5260095101478331,0.6600076999684141,0.8293738072261312,0.6513437509450287,1
0.06976207474185468,0.06763308511335613,0.7604976562112143,0.541586034753505,0.645443576098471,0.843713478048602,0.6578310400879795,1
0.06455681265149463,0.07235740552009674,0.7512796223760853,0.558646657538759,0.6299811879794578,0.8568491105298002,0.6618046960421119,1
0.060770276297186294,0.07861535321159135,0.7378286951111644,0.5768009161820559,0.613981193377565,0.8688283935940259,0.6632474583609207,1
0.058201517487675256,0.08629225275878254,0.720242528430899,0.595587479925596,0.5977987174274284,0.8797427199568515,0.6622321376895032,1
0.05667609566684996,0.09522833916258165,0.6987198603524429,0.6144928002878999,0.5817648607485294,0.8897207532934484,0.6589230929096633,1
0.056069878901947715,0.1052316676431499,0.6735541415451729,0.6329750806223873,0.5661689352123506,0.8989196672929963,0.6535748439364031,1
0.0563330213588742,0.1160941278001141,0.6451272696805422,0.6504919198000166,0.5512438582145154,0.9075143835824998,0.6465277464527549,1
0.0575122122151273,0.12760952041875373,0.6139037959620877,0.6665295436556571,0.5371572709389949,0.9156852349745497,0.6382006992350614,1
0.059768591664663334,0.139592372748832,0.5804252581149942,0.6806313166047032,0.5240103318897344,0.9236045581490195,0.6290809001250942,1
0.0633883732244618,0.15189595661936042,0.5453037024692916,0.6924232154131393,0.5118447992299456,0.9314227889378796,0.6197107197161965,1
0.06878340691808821,0.1644278667573885,0.5092131637585642,0.7016341420549455,0.5006572914408538,0.9392547058266388,0.6106718290727653,1
0.0764796887981349,0.17716156051683823,0.4728779649081229,0.7081093711456087,0.49041804270952405,0.9471665462559254,0.6025668047415701,1
0.08709299776598624,0.1901424919805178,0.4370571097257132,0.7118160633962011,0.48109055893222125,0.9551647949220375,0.595998544002185,1
0.10129218131690512,0.20348788591686354,0.4025245949270022,0.712840548701828,0.4726486080811032,0.9631874890654404,0.5915479554357395,1
0.11975195104968055,0.21737974377977962,0.3700460186844045,0.7113778570474144,0.46508789736345024,0.9710988723962166,0.5897505401266598,1
0.1430983011783003,0.23205131405684587,0.340352349200471,0.7077146437738643,0.4584312783841232,0.9786881324024872,0.5910726385143626,1
0.17185071691515105,0.24776797522597782,0.31411210365966363,0.702207175095162,0.45272790737400775,0.9856727662124883,0.5958882743321305,1
0.20636599063542488,0.26480422555112265,0.291903415380294,0.6952563883052576,0.44804797222904935,0.9917068457580213,0.6044576640081427,1
0.24678850951640605,0.28341911275526943,0.27418750686632315,0.6872821541653028,0.4444750030040489,0.9963941137754263,0.6169085588506966,1
0.2930112960977892,0.30383275219622535,0.2612850186040473,0.6786986641229189,0.44209732629926435,0.9993054663451642,0.6332216290906516,1
0.3446510821574654,0.32620638830971654,0.2533565944584292,0.6698923648083194,0.4409992244885992,1.0,0.6532210655254833,1
0.4010395576411426,0.3506277369325351,0.25038911961247073,0.6612032658778377,0.4412514090292552,0.9980484627919143,0.6765714518482535,1
0.46123182924234146,0.37710232606837985,0.25218893174197443,0.6529100145976094,0.44290005787613884,0.9930576937751802,0.7027817405311282,1
0.5240320913461483,0.4055505857248991,0.25838304145425117,0.6452189867968621,0.4459541146116388,0.9846945031484821,0.7312168473966907,1
0.5880355635978408,0.4358098204304872,0.26842887873994575,0.6382577266766635,0.45037161453025953,0.9727074546946013,0.7611169747226864,1
0.6516848954670379,0.46764003515145564,0.28163246588050667,0.6320732117571296,0.45604703493086407,0.9569451555280173,0.791624300605173,1
0.7133384756601673,0.5007327860055568,0.2971744286793225,0.6266354312524263,0.46280255935699316,0.9373699067949703,0.821816164416126,1
0.7713473741334176,0.534722583898002,0.3141430469438674,0.6218464986978907,0.4703863350999654,0.9140658818887017,0.8507433741397109,1
0.8241369115318631,0.5692006644926386,0.3315735596060878,0.6175549651450619,0.47848014740592404,0.8872413337111225,0.8774718060738917,1
0.8702880644683489,0.6037309845245142,0.3484929449877254,0.6135743016675455,0.4867174930011465,0.8572246601843643,0.901125106632942,1
0.9086132286756334,0.6378680538084882,0.36396912106596435,0.6097038781905912,0.4947110383827135,0.8244544661455602,0.9209260812558668,1
0.9382206195960083,0.671175743874012,0.377162800771319,0.605750354959365,0.5020862977326498,0.7894640476154938,0.9362342985746532,1
0.958562104861343,0.7032457365009268,0.38737913546053876,0.6015473492203712,0.50851663376028,0.7528609915833406,0.9465775666332636,1
0.9694605662989982,0.7337140300246736,0.3941150201753698,0.596971578941104,0.5137539766853344,0.7153028354939981,0.9516752522162574,1
0.9711147001022769,0.7622740427711399,0.39709690951956256,0.5919543258976664,0.5176503272815502,0.6774699698365091,0.9514518957355151,1
0.9640810940741202,0.7886853081398335,0.39630369947549554,0.5864878148724219,0.5201670337700702,0.6400371868991074,0.9460401866457582,1
0.9492351804853271,0.8127773934780395,0.3919701165203672,0.5806267749643621,0.5213714278468093,0.6036454547590491,0.9357730580407065,1
0.9277140972412812,0.8344493077662714,0.38456825158321717,0.5744858928913272,0.5214228935405903,0.5688755925365984,0.9211653753547375,1
0.90084552594035,0.853665135545159,0.37476799946681116,0.5682340341220025,0.520552134256082,0.5362255017026742,0.9028863723313328,1
0.8700672339472482,0.8704468833676664,0.36338041228936885,0.5620860207880546,0.5190378814982967,0.5060924367391246,0.8817245716472822,1
0.8368424745652461,0.8848655944537127,0.3512904827564708,0.556292489822183,0.5171845166718888,0.4787614673941921,0.8585473724116415,1
0.8025767616162257,0.8970317529241112,0.3393870771879886,0.5511280213034793,0.5153024418895139,0.4544008168111973,0.8342577617069026,1
0.7685418191046294,0.9070858820508362,0.3284975315223596,0.5468774733865142,0.5136912435450349,0.43306420291894426,0.8097506990367527,1
0.7358124556857261,0.9151900200894527,0.31933305846733445,0.5438204363004395,0.5126244819001723,0.4146997244429614,0.7858716347059406,1
0.7052214037520613,0.9215204463796268,0.3124490158497089,0.5422139952721646,0.5123347449801273,0.39916428220426714,0.7633793745661062,1
0.6773356472469336,0.9262617047783578,0.3082217278582809,0.5422745072978106,0.5129983806971883,0.3862420762642571,0.7429151245902855,1
0.6524555639867302,0.9296017165169939,0.3068413876923601,0.5441596771017533,0.514720620628077,0.3756654266155649,0.7249790770980802,1
0.6306356620279222,0.931727633408097,0.30831896094237715,0.5479526679395839,0.5175230237273505,0.3671360662022851,0.709915376842065,1
0.6117232418820842,0.9328220564792888,0.31250412823285234,0.5536501573967043,0.52133578265058,0.3603451604314017,0.6979057693928408,1
0.5954094191463483,0.9330593195567427,0.3191111075904903,0.5611560734982104,0.5259972052042711,0.3549905997645912,0.6889717221987497,1
0.5812859350635292,0.9326016865385588,0.32774945784048953,0.5702822210429666,0.5312616982112254,0.3507905480495049,0.6829843502226286,1
0.5689012035839448,0.9315954935902532,0.33795738714497225,0.5807562125363969,0.536816187126055,0.3474927439413475,0.679681095934882,1
0.5578100023557027,0.9301674352219733,0.3492354331382143,0.5922362115617834,0.5423035304744067,0.3448795696195779,0.6786878229886796,1
0.5476128224435637,0.9284213089080159,0.36107854598682043,0.6043311703257708,0.5473504734879865,0.34276934741514015,0.6795447922341102,1
0.5379827435751123,0.9264355753490535,0.3730046618637342,0.6166246536383574,0.5515971920470202,0.34101464623342215,0.6817348993551605,1
0.5286794145998579,0.9242620543244775,0.38457798478829786,0.6287000672865309,0.5547254886463082,0.33949854684151837,0.6847125610460515,1
0.5195510551071802,0.9219259721979177,0.3954255794450329,0.6401651438764586,0.5564830789546735,0.33812982810923187,0.6879317320927089,1
0.5105263081108529,0.9194274386678577,0.40524656702172307,0.6506738089038083,0.5567019802452802,0.33683792286769865,0.6908717058650214,1
0.5015983605491795,0.9167442953949401,0.413814100371779,0.6599439456009444,0.555309655097042,0.3355682989041767,0.6930595795058874,1
0.4928041323275143,0.9138361758407503,0.4209711788997555,0.6677700071068942,0.5523322264578182,0.3342786981271346,0.6940885346144118,1
0.4842015637332101,0.9106495550408774,0.4266220527773307,0.6740298448615782,0.5478897719652996,0.33293645466796024,0.6936313758012786,1
0.47584804812141657,0.9071235419910738,0.43072131235136374,0.6786855268899036,0.5421844357351427,0.33151693158537093,0.6914490648436419,1
0.46778275714347467,0.9031961484518884,0.43326269229162145,0.6817783142571944,0.5354828203053756,0.33000296923790967,0.6873942704038503,1
0.4600149253858074,0.8988107212437786,0.43426917402841275,0.6834183545802521,0.5280947256502789,0.3283851212003228,0.6814102078654245,1
0.45251914306521235,0.8939221353652581,0.4337852869904152,0.6837700414895688,0.5203506363747028,0.3266623640451902,0.6735252593061718,1
0.44523752025137425,0.8885022396352344,0.43187181936491925,0.6830343637334738,0.5125803056944872,0.3248429126381287,0.6638440320026697,1
0.4380874891889597,0.8825439877463621,0.4286026853540961,0.681429877327897,0.5050943250005908,0.3229447654327243,0.6525356308230438,1
0.4309732469076162,0.8760637395385615,0.42406356239741455,0.6791740957372797,0.49816979839858805,0.32099565389629825,0.6398199846001053,1
0.42379855589295085,0.8691014046078521,0.41835201714984044,0.6764670206341639,0.49204035262411167,0.3190321747811026,0.6259530813783257,1
0.4164788331897862,0.8617183890179086,0.4115789687916911,0.6734781941639368,0.4868899296792415,0.3170980268997303,0.6112119371273708,1
0.40895105560928374,0.8539936199257583,0.4038713012152954,0.670338101856261,0.48284932991289076,0.31524142704621794,0.5958800538116492,1
0.40118076729428576,0.8460181800747482,0.3953751632876048,0.667134133454187,0.47999441196077985,0.3135119121166097,0.5802340234795805,1
0.39316612313408406,0.8378892196200077,0.38625906518277847,0.6639107712662273,0.47834520176861006,0.3119568237178666,0.5645318137086754,1
0.38493923553171844,0.8297037930024674,0.3767154929874272,0.6606733264643607,0.4778657563727474,0.31061780764680047,0.5490031347295644,1
0.3765650929236309,0.8215531130645742,0.36695969268570666,0.657394412569693,0.4784651992441535,0.30952764575335656,0.5338421478411467,1
0.36813814982312776,0.8135175068054795,0.35722470904221115,0.6540223888501879,0.48000063023928163,0.308707684377925,0.5192026355768303,1
0.3597765819450881,0.8056622039407252,0.34775265623013624,0.650491119572945,0.48228249526857525,0.308166050621961,0.505195622823209,1
0.3516143201423412,0.7980340461365175,0.3387832301122045,0.6467304469309786,0.48508255884342005,0.3078967725791378,0.4918893200343553,1
0.3437913354403214,0.7906592382078179,0.3305412303173351,0.6426766839383632,0.48814408319665653,0.30787985132079576,0.479311159055793,1
0.3364430933982519,0.7835422859633433,0.3232250603711699,0.6382822392586901,0.4911934372165843,0.3080822710989599,0.4674516120007505,1
0.3296903973962267,0.7766662101320057,0.31699779637277203,0.6335233471078834,0.4939523006530146,0.3084598755191452,0.4562694261245831,1
0.3236308301612372,0.7699939933424766,0.31198166849546705,0.6284049654246435,0.49614988362833723,0.30895997628986954,0.44569787361903096,1
0.318332673312878,0.7634710729045171,0.3082559870525031,0.6229622872515975,0.4975349687126256,0.3095244962447113,0.4356516044763683,1
0.3138316600211966,0.7570286053206079,0.30585791883244706,0.6172588867843203,0.49788784785082896,0.3100933879559452,0.42603370174199795,1
0.31013036567201485,0.7505872170418094,0.3047852063881668,0.6113820954459144,0.49703216958562985,0.3106080325516817,0.4167425692425425,1
0.3071996226937267,0.7440609920569866,0.3049999281584343,0.6054365857844178,0.4948462909171729,0.31101433119147476,0.40767832899549167,1
0.30498117203496683,0.7373614967259844,0.3064326495322,0.5995372297847643,0.49127309534049035,0.31126526233480184,0.39874846499563116,1
0.30339087535329173,0.7304016849358219,0.30898669641709847,0.5938021021806359,0.48632669608782875,0.3113227788168116,0.38987251745911256,1
0.30232215686285147,0.7230995521965436,0.31254264234101076,0.5883461287152846,0.48009431349415344,0.3111590305606908,0.38098570220836186,1
0.3016497843688763,0.7153814206306728,0.3169632971641014,0.5832755030805706,0.47273207702031594,0.3107569891210071,0.37204139913396383,1
0.3012344442082406,0.7071847561674607,0.32209946799394384,0.5786827652383972,0.46445449108552705,0.31011059667241636,0.3630125174474335,1
0.30092864122673846,0.6984604545064024,0.3277965922353653,0.5746424110682478,0.4555185345918446,0.3092245577231438,0.3538918003571454,1
0.3005841996917494,0.6891745693149957,0.3339021116337851,0.571207051468883,0.4462044528825739,0.30811384510793366,0.34469117545515743,1
0.3000611384717354,0.6793094682696424,0.34027320113062287,0.568404358141821,0.4367959068880605,0.3068029238394392,0.335440288216129,1
0.29923712369192856,0.6688643739238258,0.3467842067683297,0.5662352114043463,0.4275620826121377,0.30532463745113736,0.32618437445066306,1
0.298016268853845,0.6578551884641097,0.3533329780614578,0.5646735230513582,0.41874366831608084,0.30371868161074494,0.3169816342424646,1
0.2963359351590386,0.6463134619850196,0.35984533506833966,0.5636681196003706,0.4105435185255048,0.3020296242972922,0.3079002665892098,1
0.29417047311694916,0.6342844058043332,0.36627721333204927,0.5631468516186595,0.4031217090870915,0.3003045125257782,0.2990153129739049,1
0.29153147686008657,0.6218239975961943,0.3726144422459137,0.5630227678199203,0.3965939059872068,0.29859020539745046,0.29040544197190915,1
0.28846488188638075,0.608995421119843,0.3788704348374993,0.5632018051782945,0.3910317456458285,0.2969306580791226,0.28214978824926534,1
0.2850458465151109,0.5958652351721394,0.38508218445825887,0.5635910993056955,0.38646425720809974,0.2953644217016399,0.2743249401319067,1
0.28137259477370474,0.5824997012477202,0.39130491458100614,0.5641068511500293,0.3828800287983448,0.2939226047801383,0.26700215205342426,1
0.277560201638317,0.5689616066231488,0.3976056514169624,0.5646807965428066,0.380230481010704,0.2926274667797075,0.26024484278796733,1
0.27373479616548724,0.5553077492162422,0.4040559969901051,0.5652646995671726,0.37843492499968945,0.2914917064433502,0.2541064280247748,1
0.27002809375791426,0.5415870797301735,0.4107244772908509,0.5658327860474095,0.37738786275774683,0.2905184006176032,0.24862852657106907,1
0.2665718075652405,0.5278393890613748,0.41766897493283434,0.5663824458321166,0.37696828514350517,0.28970147784750816,0.2438395728369702,1
0.2634914923411019,0.5140944152797959,0.42492989927995156,0.5669337050441428,0.3770498260158188,0.28902659519910096,0.2397538634501811,1
0.2608997306806881,0.5003713194009859,0.4325248650375734,0.5675278629400144,0.37750995341387833,0.2884723229101836,0.23637106181939896,1
0.25888910717839086,0.4866785989669734,0.44044564371706046,0.5682253805575134,0.3782362854004946,0.2880116034235626,0.23367618005859936,1
0.2575258822730106,0.4730146013625141,0.4486579137762712,0.5691027550057832,0.37912875142564983,0.28761350275108677,0.2316400517779293,1
0.2568454621983954,0.4593688039164713,0.457103871043511,0.57024789508975,0.38009752015813736,0.2872452827863846,0.2302203008876115,1
0.25685056937756123,0.4457239346394106,0.465707217257283,0.5717535700046418,0.38105797113203166,0.28687478250780374,0.2293628000862723,1
0.2575125075281137,0.4320588574928544,0.4743796190739133,0.5737088582204833,0.38192500228279797,0.2864730176318702,0.22900359784244523,1
0.2587752792703317,0.4183520010805416,0.48302756861657153,0.5761890686903691,0.38260925578821775,0.2860168233942551,0.22907127461353666,1
0.2605617817603507,0.404585017835708,0.49155870849033506,0.5792451534509089,0.38301729124131945,0.28549130683186247,0.22948966844868485,1
0.2627810304495251,0.39074634067041863,0.4998870204578911,0.5828940005766949,0.3830565150880936,0.2848918629294281,0.2301808881174399,1
0.2653353740520291,0.37683434601872123,0.5079366824417948,0.5871110761879192,0.3826441824311196,0.2842255440914375,0.23106851000610434,1
0.2681269193949481,0.36285991216117885,0.5156447622434016,0.5918266462242937,0.3817184887166891,0.2835116404054765,0.23208083500508292,1
0.27106279908474484,0.34884825431917404,0.5229631523495832,0.5969263102985133,0.3802490551455551,0.28278140755354025,0.23315406536637534,1
0.2740593557959107,0.33483999669436765,0.5298601803228367,0.6022559445541128,0.37824418468352516,0.2820769505174645,0.23423525088159022,1
0.2770456124797483,0.32089147530199735,0.5363221281050277,0.6076305304546699,0.37575308112870615,0.28144932531616507,0.23528485034082094,1
0.2799664144446123,0.3070742343419907,0.5423545517175865,0.6128458805807615,0.37286250474129046,0.2809559603117835,0.23627875933604145,1
0.282785363582343,0.2934736025801001,0.547982993131371,0.6176920488901942,0.3696886703252981,0.28065753069647265,0.23720966983128705,1
0.2854872595855904,0.2801861779803662,0.5532525785825531,0.6219672406675419,0.3663661795501528,0.28061445103987764,0.23808765071388222,1
