x-axis (g),y-axis (g),z-axis (g),x-axis (deg/s),y-axis (deg/s),z-axis (deg/s),energy,movement
0.4403057330047135,0.3740798914577796,0.634699587173135,0.47422847324716283,0.21244125984309645,0.3477413328339054,0.12779476578240143,1
0.44792559583060915,0.365310876515175,0.650374739612137,0.4790353921070892,0.19130592783366512,0.35115244700199927,0.13939361411629397,1
0.45614115636867075,0.35603577529759806,0.6661416730197827,0.4845065147970048,0.17035171546869873,0.35480443221657126,0.15203859145419643,1
0.46481929606158373,0.3464137095343006,0.681775862376607,0.49070185671754246,0.14991710343610734,0.3585502035274832,0.16555886725277094,1
0.47379432524764736,0.33662838166683073,0.697033954770024,0.497665018943559,0.13033162050704103,0.36221682156319934,0.1797499495053082,1
0.48287513184774755,0.32688265130594546,0.7116625026126948,0.5054173076566878,0.11189396471919388,0.36561123219877295,0.19437900461984706,1
0.4918550512703316,0.31739186103235045,0.7254085553393231,0.5139525193397576,0.09485217163194512,0.3685274440835487,0.20919177357506052,1
0.500524102619039,0.3083761467238672,0.7380313629732286,0.5232328832511643,0.07938808345773557,0.3707547889383947,0.22392079544206694,1
0.5086827895119461,0.3000520760334672,0.749314198149554,0.5331866114685676,0.06560801384311393,0.3720868345288,0.2382945526315381,1
0.5161561926202601,0.292624039579743,0.7590751721151349,0.5437074228849561,0.0535407457425608,0.3723304644948273,0.25204708065430204,1
0.5228067753224467,0.28627586115948933,0.7671759506618472,0.5546562853851027,0.04314296998458712,0.3713146130898638,0.2649275453666167,1
0.5285443178402988,0.2811631033966466,0.7735275186737034,0.5658654630769889,0.03431119187256281,0.3688981601521696,0.27670928641512615,1
0.5333317310296223,0.27740653156109485,0.778092583944243,0.5771447692971104,0.026898254571322333,0.36497655598402434,0.28719785752005456,1
0.5371861164087725,0.27508715677543366,0.7808847283047503,0.588289728592908,0.020732156405812684,0.35948684818853877,0.2962376597215518,1
0.5401751786755999,0.2742432054803348,0.7819648235600783,0.5990911672964452,0.015634864551203966,0.35241090644974005,0.30371685720924996,1
0.542409757356382,0.27486926432108555,0.7814354020168117,0.609345601784074,0.011439284345333808,0.3437767654572456,0.3095703789628254,1
0.5440336571814178,0.27691774271197683,0.7794336059836837,0.618865684520542,0.008003225313484174,0.333658108767949,0.3137809337193042,1
0.5452120649158143,0.2803026758825747,0.7761231491232731,0.6274899114616465,0.005219853144825106,0.32217198791106544,0.3163780906966164,1
0.5461196989651257,0.2849057409238799,0.7716855518435982,0.6350908128957354,0.0030245439722767593,0.30947492384678943,0.31743559428489876,1
0.5469295573757036,0.29058417080660426,0.7663108670164198,0.6415809635327764,0.001398223237189835,0.2957575938696285,0.31706717894029074,1
0.5478028238295245,0.2971800482800505,0.7601882093591636,0.6469163526961491,0.0003672656008059442,0.28123837421266207,0.31542122396484096,1
0.5488802555717482,0.30453028486744166,0.753496579782075,0.651096919904151,0.0,0.2661560760072953,0.3126746322094346,1
0.5502752738834981,0.31247648534020417,0.7463966392444966,0.6541643382092401,0.0003999361533118666,0.2507622646705479,0.30902633003021923,1
0.5520690062026392,0.32087389898723495,0.7390241554160212,0.6561973696856607,0.0016960749273830726,0.23531357817923576,0.30469076869369466,1
0.55430760487207,0.32959877264519644,0.7314857699567472,0.6573052864764095,0.004031056327404275,0.22006444417067736,0.2998917629120822,1
0.5570021610099963,0.3385536193097418,0.7238574929995758,0.6576199318513715,0.007548297752359386,0.2052605291898223,0.2948569354063798,1
0.5601313655809603,0.3476701509379304,0.7161859569696116,0.6572870047461125,0.012379486525393411,0.1911331469355806,0.2898129539921094,1
0.5636467817368339,0.3569098508873492,0.7084920652052955,0.6564571223175442,0.018633673012265893,0.17789473887228643,0.2849816572473404,1
0.567480295306452,0.36626235913798877,0.7007763941355661,0.655277173889899,0.026388770952149507,0.1657354467969642,0.28057707421610895,1
0.5715530975591974,0.37574200498070986,0.693025626296568,0.6538824312437846,0.035685669713629714,0.15482072207804373,0.27680326032037816,1
0.5757854605695263,0.38538293677138974,0.6852193690178421,0.652389818321988,0.04652462541933663,0.14528984447438567,0.2738528022600439,1
0.5801065888487664,0.3952333539187306,0.677336853525437,0.6508926628186948,0.05886330655618604,0.13725514941963946,0.2719057943330266,1
0.584463950614008,0.405349340845245,0.6693631338575218,0.6494571522490344,0.0726158925450492,0.13080169862540864,0.2711290607427354,1
0.5888316552712439,0.415788747384762,0.6612944857588761,0.6481206038869489,0.0876529070674889,0.12598709505174913,0.2716753946194743,1
0.59321756355702,0.4266054734945284,0.6531427419516912,0.6468915429570365,0.10380187728114332,0.12284115833732634,0.2736826042894622,1
0.5976688128377147,0.4378444223669518,0.6449382998582185,0.6457514767561088,0.12084928631424637,0.12136525144171019,0.27727219860039465,1
0.6022752975566537,0.44953730539336095,0.636731524560314,0.6446581589218376,0.1385444941251919,0.12153118282353872,0.2825476021021047,1
0.6071704409225801,0.4616994187881985,0.6285922867376593,0.6435500631565925,0.15660626354745447,0.12327978781243278,0.28959186257575376,1
0.6125284657002056,0.47432745963717493,0.6206074661607288,0.6423517368830138,0.174732244954055,0.1265194907063739,0.2984648919207124,1
0.6185574508725402,0.4873984101314572,0.612876433886634,0.6409796845923755,0.192611321697211,0.13112532366083507,0.3092003603985122,1
0.625487811108463,0.5008694945220062,0.6055047771047587,0.6393484308728673,0.2099382210529691,0.13693898210848876,0.3218024373096502,1
0.6335564208059671,0.5146791914759747,0.5985967917101892,0.637376425481421,0.22642936760593654,0.14377049357978017,0.33624263231451285,1
0.6429873013492458,0.528749248784576,0.5922474762841698,0.634991474677945,0.24183867104563303,0.15140195596741118,0.3524570355056334,1
0.6539704436,0.5429875979922496,0.5865348688349434,0.6321354166542745,0.2559718264224862,0.1595935763900034,0.37034427674235226,1
0.6666408070226052,0.5572920203879544,0.5815135369494898,0.6287678063041946,0.2686977626953765,0.16809194792930804,0.3897645227243128,1
0.6810597199508222,0.571554389994072,0.5772098494735369,0.6248684347200114,0.27995609291527285,0.1766401884081585,0.4105398023664653,1
0.697200758543891,0.5856653129700726,0.5736193681444056,0.6204385769324178,0.28975977883083975,0.18498928717782098,0.4324558974488452,1
0.7149417397867719,0.599518969861638,0.5707063974617897,0.6155009319552378,0.2981926973069659,0.19290981110451974,0.4552659581721374,1
0.7340638301831759,0.6130179173840702,0.5684055076711856,0.6100982916839428,0.305402336419136,0.20020304456058233,0.4786959058019552,1
0.7542580681024869,0.6260775306008518,0.5666247268867841,0.604291053717275,0.3115883765432325,0.20671069010397636,0.5024515723232049,1
0.7751389059028521,0.6386297244376327,0.5652500586395616,0.5981537747754326,0.316988334138945,0.2123224126054324,0.5262274067063852,1
0.7962637334300204,0.6506256375329997,0.5641509780907428,0.5917710289068411,0.3218616881990258,0.21698072391895748,0.5497164569241104,1
0.8171567904829886,0.6620370768161286,0.5631865667911492,0.5852328680914072,0.3264739366154106,0.22068293783900073,0.5726212248812739,1
0.8373355001856552,0.6728566440943411,0.56221196493058,0.5786301776382947,0.3310818557449623,0.22348015556550818,0.5946648967180637,1
0.8563371435106123,0.6830965534426485,0.5610848695641135,0.5720501893866691,0.33592091904779403,0.22547345761452467,0.6156023817707406,1
0.8737439537690963,0.6927862128214602,0.5596718847584932,0.5655723807683449,0.3411954535700687,0.2268076593077907,0.6352305568458405,1
0.8892050546474993,0.7019687220793863,0.5578545964320114,0.5592649540611598,0.347071757345753,0.22766310757350747,0.6533971134527644,1
0.9024540834090891,0.7106965435444422,0.555535259900228,0.5531820527188578,0.35367411996378645,0.2282460392684043,0.6700074467890051,1
0.9133217521751905,0.7190266973290251,0.5526419506851254,0.5473618281885592,0.36108350156016833,0.2287779926289001,0.685029106187277,1
0.9217429663521863,0.7270158724055755,0.5491329716258978,0.5418254290681639,0.3693385255488348,0.22948469921060866,0.6984934439297924,1
0.9277584201010483,0.7347158130013054,0.5450002612481628,0.536576951403279,0.3784384051081629,0.23058483295923637,0.7104942463646922,1
0.9315108175007968,0.7421692729630628,0.5402715263255865,0.531604355915661,0.3883474218297605,0.2322789928725004,0.7211832991245458,1
0.9332360427962395,0.7494067666265505,0.5350108417539543,0.526881309077083,0.3990005772557146,0.2347393506285433,0.7307630160565213,1
0.9332497570543582,0.7564442835973856,0.5293175305362405,0.5223698370647701,0.4103100272462511,0.2381004754480428,0.7394764372909531,1
0.9319300571727054,0.7632820598621431,0.5233232390870527,0.518023608976237,0.42217188626551955,0.24245190865253902,0.7475950636610682,1
0.9296970118425532,0.7699044162855998,0.5171872341911256,0.5137916050965838,0.43447297067310076,0.24783305578880238,0.7554051312545178,1
0.9269900971721621,0.7762806135186049,0.5110900626756621,0.5096218856846976,0.44709706138314215,0.25423086733982164,0.7631930317596565,1
0.9242447712211886,0.7823666386111184,0.5052258393993417,0.5054651583215339,0.4599303225175875,0.261580586771708,0.771230644423227,1
0.9218695752277554,0.788107818171207,0.4997935548039992,0.5012778514355062,0.4728656062561148,0.26976958057801786,0.7797613597271028,1
0.9202251386207667,0.7934421238500508,0.49498789266288,0.4970244448877798,0.4858054798100694,0.27864397444547734,0.788987542328195,1
0.9196062772229384,0.7983039815815924,0.49099009733234117,0.4926788898802318,0.4986639104671107,0.2880175578353251,0.7990601035179804,1
0.9202280908958469,0.8026283152540086,0.48795942374309537,0.48822506515891495,0.5113666430710287,0.29768223705605346,0.8100707364493607,1
0.9222166910813029,0.8063544749814487,0.4860256538547813,0.4836563481560538,0.5238504158448831,0.30741924710452123,0.8220472180883566,1
0.925604961831817,0.8094296666327034,0.4852830806489569,0.47897450379197754,0.5360612920892782,0.3170103772992302,0.8349520095858227,1
0.9303335607844198,0.8118115474674782,0.4857862507917727,0.4741881815237797,0.5479525278931072,0.3262485922230941,0.8486842020679578,1
0.9362571570758557,0.8134697790680944,0.4875476307582534,0.469311337083138,0.559482517617611,0.33494758260525204,0.8630846688147429,1
0.943155632772813,0.8143864962156276,0.490537234432228,0.4643618495994434,0.5706133996554662,0.3429499096906132,0.8779441084429733,1
0.9507496152179118,0.8145558147887979,0.494684133704492,0.4593605026522193,0.581310799281224,0.3501334880266948,0.8930135073385876,1
0.9587193030547633,0.8139826327252228,0.4998796736461076,0.45433037081296596,0.5915449136108306,0.3564161929783766,0.9080164222228753,1
0.9667252117304074,0.8126810601977548,0.5059821422336955,0.4492965324990152,0.6012927664655212,0.36175840586447755,0.9226623926474212,1
0.9744293015501523,0.8106728377392405,0.5128226154084538,0.4442859377737416,0.6105410992739276,0.3661633483373677,0.9366607434588472,1
0.9815149933631346,0.8079860528506196,0.520211709010911,0.43932721190867075,0.6192891420363738,0.3696751265675774,0.9497340314110031,1
0.9877047788802932,0.8046543443208004,0.5279469909179358,0.4344501831109518,0.6275505003482952,0.37237451167160585,0.961630427985451,1
0.9927744217217763,0.8007166131057672,0.53582080270814,0.4296849872789973,0.6353536014402792,0.3743726244319628,0.9721344092394337,1
0.9965630625804256,0.7962170935997096,0.5436281988611684,0.4250607100185942,0.6427404983562299,0.37580286070175184,0.9810752376845321,1
0.9989788510155544,0.7912055402487962,0.5511746575255716,0.4206036476069309,0.6497642331148644,0.37681156644379343,0.9883328631160045,1
1.0,0.7857372815261149,0.5582831882811092,0.41633536950361355,0.6564852982737385,0.3775481119553392,0.9938410295337858,1
0.9996713784104535,0.7798729668050675,0.5648004818091109,0.41227081910321123,0.6629679230492098,0.3781550873740039,0.9975875433055506,1
0.9980969321624303,0.773677928621036,0.5706018138586858,0.40841669010048326,0.669276896467928,0.3787593291735832,0.9996118226574122,1
0.9954284026452066,0.7672211552652144,0.57559451914374,0.40477027552357503,0.675475433206154,0.37946440031730805,1.0,1
0.9918510346760456,0.7605739063210546,0.5797199755345167,0.401318923904289,0.6816242516667953,0.38034501112839847,0.9988779772294837,1
0.9875672293548708,0.7538080299184887,0.5829541652161181,0.39804016539862264,0.6877816679241249,0.38144370611897105,0.9964029325109698,1
0.9827793411349428,0.7469940748128232,0.5853069740502461,0.39490249768198465,0.6940042146717139,0.3827699654411272,0.9927538399822011,1
0.9776729741482201,0.7401993239725303,0.5868204200572203,0.3918667556333036,0.7003471453445083,0.3843016875603739,0.9881215887485033,1
0.972402163267529,0.7334858853856004,0.5875659682348849,0.3888879406206949,0.70686421447551,0.38598884658205623,0.9826992746374118,1
0.9670777259672739,0.7269089484040481,0.5876410380395682,0.385917362648029,0.7136063285813754,0.3877589693203358,0.9766731902282263,1
0.9617598416107374,0.720515262272651,0.5871647924960157,0.38290495317953027,0.7206189866497474,0.38952396526387423,0.9702149607806032,1
0.9564555479581759,0.7143418484790546,0.5862733230556306,0.3798016310523607,0.7279387875898339,0.39118777177987657,0.9634751728346216,1
0.9511213473550203,0.7084149488074772,0.5851143800590846,0.3765616344284833,0.7355895740650249,0.39265424502604457,0.956578726691725,1
0.9456705348462494,0.7027492386334533,0.5838418110385308,0.3731447532581784,0.7435789311418802,0.39383472972720995,0.9496220225583608,1
0.9399842878171578,0.6973473750536334,0.5826098539732301,0.3695184008211454,0.7518957327996427,0.39465477822874995,0.9426719715850113,1
0.9339251061534511,0.6921999706564936,0.5815674156747255,0.36565945113648524,0.7605092489316918,0.39505956469161047,0.9357667153296141,1
0.9273509700558844,0.6872860668833319,0.5808524760890057,0.36155575017665004,0.769370051028271,0.39501765444396775,0.9289178469204573,1
0.9201286407404001,0.6825741287237109,0.5805868026675971,0.3572071925172768,0.7784126633835083,0.3945229346658747,0.9221138591797067,1
0.9121448273553235,0.6780235200348973,0.5808712135869633,0.35262624763149597,0.787559659924827,0.39359467645006396,0.9153245018937062,1
0.9033143735572747,0.6735863735686475,0.5817816687193523,0.34783782638088556,0.7967267358304639,0.3922758598046252,0.9085057128063088,1
0.8935850728076243,0.6692097472365326,0.5833664786409165,0.34287840513298,0.8058281962287396,0.3906300322410776,0.9016047932368023,1
0.8829391450673694,0.6648379469614877,0.585644895316558,0.3377943775640575,0.814782296612609,0.3887370734827033,0.8945655261928026,1
0.8713917769189778,0.6604148943045243,0.5886072746965064,0.3326396771871878,0.823515924823447,0.38668829315800546,0.8873329778418347,1
0.8589874122091714,0.6558864304990852,0.5922168863217407,0.3274727891681296,0.8319682072284611,0.3845812867890098,0.8798577767999008,1
0.8457946314295982,0.6512024661183019,0.5964133117739685,0.32235333139154787,0.8400927273855988,0.3825149180195137,0.872099724217435,1
0.8319004435795084,0.6463188782562868,0.6011172452410954,0.3173384314515505,0.847858151913189,0.38058469976885256,0.8640306456976049,1
0.8174046639601535,0.641199020681754,0.606236390532193,0.3124791686278612,0.8552471740669612,0.37887874486792356,0.8556364490085452,1
0.8024148512750688,0.6358146888164148,0.6116720337357837,0.3078173888645434,0.8622538390974711,0.37747437356773383,0.8469183957726574,1
0.7870421143414099,0.6301464188028837,0.6173257633660107,0.3033832182812112,0.8688795369266988,0.3764354107636016,0.8378936285593357,1
0.7713980023867425,0.6241831045340924,0.6231057375560224,0.2991935702499989,0.8751282340910501,0.37581017703395936,0.8285950161894456,1
0.7555926144497219,0.6179210505389422,0.6289319006810421,0.2952518450485003,0.8810018004697124,0.37563016498192475,0.8190703900451274,1
0.7397339067014078,0.6113626879842463,0.6347396521278449,0.29154886650410894,0.8864964376587751,0.3759093841389027,0.809381244418992,1
0.7239278906327742,0.6045152202054954,0.6404816588568576,0.2880649242293011,0.8916011031627299,0.3766443502241243,0.7996009670139492,1
0.708279088509452,0.5973894168562024,0.6461277561209415,0.28477264697919874,0.8962984074264532,0.37781469635426335,0.7898126547975137,1
0.6928904495121853,0.5899986682750433,0.6516631585668361,0.2816403642973204,0.9005678492224776,0.3793844001954743,0.7801065589229599,1
0.6778620947234089,0.5823583032173403,0.6570854363053985,0.27863562744710135,0.9043906734962084,0.3813036371238113,0.7705771935919364,1
0.6632887326691275,0.5744851225439294,0.6624008153121432,0.2757286279280629,0.9077553068814801,0.38351125584756973,0.7613201402675019,1
0.6492561646504414,0.5663971269134398,0.6676203076971635,0.2728953269853801,0.9106623528906249,0.38593780957940627,0.7524285824558415,1
0.6358377093645114,0.5581134775832164,0.6727560118962068,0.27012015856388716,0.91312844862831,0.3885089707397554,0.7439896182350837,1
0.6230914268054667,0.5496547583007385,0.6778177352079088,0.26739818497964635,0.9151887121074443,0.3911490469581878,0.7360804175567985,1
0.6110586895773034,0.5410435647783747,0.6828099652990172,0.2647365831563756,0.9168978339759961,0.39378424938952533,0.728764317666069,1
0.5997640857707358,0.5323053524628543,0.6877291985397376,0.2621553392918349,0.9183299528863537,0.3963453782629449,0.7220869803053717,1
0.5892160928560886,0.5234693716607941,0.6925617068106786,0.259687050356141,0.9195772904328652,0.3987696937792091,0.7160727653366088,1
0.5794076811261847,0.5145694620217163,0.697281922423179,0.25737578343766393,0.9207472292606073,0.40100190765199206,0.7107215030836428,1
0.5703161173320481,0.5056444987899683,0.70185166365244,0.255275023009652,0.9219572974934193,0.40299440910218676,0.7060058678649532,1
0.5619017026155916,0.4967383753820072,0.7062203727290127,0.2534448222451587,0.9233275694367379,0.40470696942656276,0.7018695638190521,1
0.5541058153329405,0.4878995179642495,0.7103264175477764,0.2519483490728291,0.9249704022679796,0.40610621458758567,0.6982265278055314,1
0.5468491996265074,0.47917999397560546,0.7140993787676788,0.2508480698935493,0.9269781347347795,0.4071651207106271,0.6949613305299558,1
0.5400317068562274,0.4706342792318135,0.7174631543999507,0.25020183863962686,0.929410149147031,0.40786270986834255,0.691930915166686,1
0.5335345073729366,0.46231772456121284,0.7203396689773505,0.25005915761232717,0.9322812353711261,0.4081840405898076,0.6889677534185388,1
0.5272251868206543,0.45428476086442304,0.7226529488539642,0.2504578571737896,0.9355532501917664,0.40812051670911753,0.6858844247377506,1
0.5209653727565027,0.4465869164785386,0.7243333069814536,0.25142141124040474,0.9391315763151648,0.4076704834271691,0.6824795396291617,1
0.5146199138575738,0.4392707762218574,0.7253213837481766,0.25295706557263387,0.9428669993583929,0.4068400420434944,0.6785448382687216,1
0.5080663476736936,0.4323760628303925,0.7255718229336657,0.2550549043591518,0.946562616839108,0.4056439893711926,0.6738732077521691,1
0.5012034626824864,0.4259340439466045,0.7250563990134807,0.2576879224864308,0.9499845718555111,0.4041067626654414,0.6682672821580538,1
0.4939581042471733,0.419966437353669,0.7237664214937934,0.26081311773875443,0.9528750026911739,0.4022632441259177,0.6615482260135022,1
0.4862898757072924,0.41448490412725747,0.7217142297642727,0.2643735700185379,0.9549657172503146,0.4001592633043688,0.6535642595544643,1
0.47819387480010117,0.40949112677721705,0.7189336070740507,0.2683014126344699,0.9559916342603447,0.39785163918560834,0.6441984678285289,1
0.4697018557316727,0.4049774146015399,0.715479022494068,0.27252150517419843,0.9557036767611311,0.395407619933624,0.633375447845346,1
0.46088207844775897,0.4009277589471565,0.7114237342481422,0.2769555093679489,0.9538811886863912,0.39290360185154394,0.6210663892380945,1
