x-axis (g),y-axis (g),z-axis (g),x-axis (deg/s),y-axis (deg/s),z-axis (deg/s),energy,movement
0.9298022504039126,0.7030390601097565,0.4982570888122844,0.4856855671924197,0.5932105102965806,0.40010943069939997,0.6748154449633574,1
0.9253300328426607,0.7024452554621882,0.4965192589528413,0.48280778942666214,0.5981055552869801,0.4009365394137452,0.6717456952701315,1
0.9198789277614162,0.7017504660478312,0.49385240282155163,0.47963694800728995,0.6038954828390515,0.40185220114640596,0.6679773337583131,1
0.9134158659334558,0.7009411485918339,0.4902399597149438,0.4761750508763534,0.6105585714417457,0.40285676951889976,0.6634973279508081,1
0.9059312255618388,0.7000005253029592,0.48572005033713495,0.47241742327758574,0.6180458665002427,0.4039521193126328,0.6583139942518287,1
0.8974401901823311,0.6989077739679769,0.48039163513812694,0.46835009744105216,0.6262829240441784,0.40514219484725217,0.6524581035004691,1
0.887983080322786,0.6976371118940043,0.474417548152956,0.46394830406243037,0.6351730425989465,0.4064332568739213,0.6459830109119908,1
0.87762451276659,0.696156832373631,0.4680237752022301,0.4591765657419274,0.6446017644677074,0.40783370023882415,0.6389637814099215,1
0.866451232726171,0.6944284658243779,0.46149452193736595,0.45399067646497604,0.6544423293516597,0.4093533642123168,0.6314953299957514,1
0.8545685079199482,0.6924063258625917,0.4551629310052234,0.4483415410501893,0.6645616756599808,0.41100234433218713,0.6236896408863332,1
0.8420950900673345,0.6900376999576397,0.4493977525064296,0.442180526723772,0.6748265158274458,0.4127894216748737,0.6156721677959281,1
0.8291569333305127,0.6872638474470999,0.44458673133223026,0.4354657270351053,0.685108986756172,0.4147203208688207,0.6075775503905565,1
0.8158800869976955,0.6840218334416135,0.44111780335636586,0.4281683984566461,0.6952914224340341,0.41679605890371724,0.5995448083441682,1
0.8023834057376181,0.6802471338060511,0.4393593296924576,0.4202787959572054,0.7052699190589318,0.4190116325878606,0.5917121945757013,1
0.7887718698636152,0.6758769194655881,0.43964060038676933,0.411810678437878,0.7149565376722098,0.421355216405887,0.5842119032928798,1
0.7751313019808383,0.6708539169725467,0.44223380107793603,0.4028038654168214,0.7242801689172005,0.4238079327126206,0.5771648365981543,1
0.7615250768120798,0.6651306773368586,0.44733858923844544,0.3933244097495025,0.7331862264930307,0.42634415056051234,0.5706756357320875,1
0.7479930946576474,0.6586739530580791,0.45507031083266575,0.38346220977990925,0.7416354190679189,0.42893219318631065,0.5648281794844925,1
0.7345529262889483,0.6514687388543013,0.46545263241858253,0.3733261935500951,0.7496018770992505,0.4315352946237936,0.5596817426427736,1
0.7212027472160106,0.6435214529012181,0.4784149867593995,0.36303751664062844,0.7570708981762504,0.4341126435959756,0.55526799115743,1
0.7079255322376738,0.6348617750916515,0.49379484465695034,0.3527214636609839,0.7640365431549895,0.43662038504948497,0.551588967516094,1
0.6946939759413256,0.6255428202589454,0.5113445371324358,0.34249888171976073,0.7704992819386549,0.43901250348501536,0.5486161892640401,1
0.6814756739793397,0.615639560140078,0.5307421643586828,0.33247798186626043,0.7764638595320129,0.4412415660622879,0.5462909456260444,1
0.6682381561772703,0.6052456385318374,0.5516059532670629,0.3227472435478076,0.7819375280261819,0.44325934272021106,0.5445258322022591,1
0.6549533634727147,0.5944688808171521,0.5735111892312347,0.31337000215838473,0.7869287613890941,0.4450173489516443,0.5432075128090952,1
0.6416011442122684,0.5834258666058804,0.5960085864927249,0.3043811379051736,0.7914465306397293,0.446467387986385,0.5422006425225602,1
0.628171395915083,0.5722359461301008,0.618642813084491,0.29578612264056026,0.7955001631640671,0.4475622072435214,0.5413528293724014,1
0.6146646449112638,0.5610150739631116,0.64096995851784,0.28756249832893804,0.7990997387831305,0.44825641504343083,0.540500457031685,1
0.6010910973042597,0.5498698225113906,0.6625730172925914,0.27966364112325187,0.8022568851836915,0.4485078052699621,0.5394751407154724,1
0.5874684152007967,0.5388919255300386,0.6830748615388446,0.27202442307844027,0.8049857326699943,0.4482791980134468,0.5381105468902582,1
0.5738186122066666,0.5281536873499856,0.7021485833850537,0.2645681683627529,0.807303696663297,0.44754083043592163,0.5362492776055376,1
0.5601645379227419,0.5177045695549634,0.7195254034248271,0.25721417836847926,0.8092317198467114,0.4462732383129336,0.5337495050301164,1
0.5465264768343232,0.5075692221652449,0.7350004734874437,0.24988511328747098,0.8107936732133836,0.4444704600126575,0.5304910430051595,1
0.5329194294282537,0.49774714290781674,0.7484368028325514,0.24251365725723714,0.8120148094260085,0.4421432720698825,0.5263805609555122,1
0.5193516258983168,0.48821400693142764,0.7597672628724265,0.2350481066559594,0.8129194497138109,0.4393220462843866,0.5213556809965967,1
0.5058246741789134,0.47892452129876845,0.7689943411910518,0.22745673697655985,0.8135283727240809,0.4360587448100915,0.5153877500063244,1
0.49233542443753414,0.46981648197630976,0.7761872244026068,0.2197309630716942,0.8138565401514234,0.4324275928612369,0.5084831421566588,1
0.4788791918318482,0.46081561793945547,0.781476007735066,0.2118873787898549,0.813911755609806,0.4285241147262374,0.5006830203377006,1
0.46545356245077135,0.4518408311946086,0.7850432754966018,0.20396874961210235,0.8136946096863541,0.42446246364078005,0.49206156279662433,1
0.4520617837855627,0.4428095514885717,0.7871137161927274,0.19604397172347826,0.8131997026145728,0.4203712487103667,0.4827227395198321,1
0.43871482868702943,0.43364303408718136,0.7879425871742723,0.18820695282103003,0.8124177969811457,0.4163882783742763,0.4727957967369975,1
0.4254316341437931,0.42427145348484174,0.7878036774713129,0.18057435141548642,0.8113383700112359,0.41265474512157385,0.4624296730406106,1
0.4122376234726913,0.4146385779024833,0.7869770921336758,0.1732821406449007,0.809952065115333,0.4093093668635153,0.45178662320491675,1
0.39916216828744394,0.40470573433288276,0.7857369384428297,0.1664810231888638,0.8082527280500345,0.4064829116736957,0.44103536289652273,1
0.3862358842023351,0.3944547914537946,0.7843390112424865,0.16033078989412397,0.8062389175294142,0.4042934077198206,0.4303440671411038,1
0.3734884892633586,0.3838900219227391,0.7830088606189789,0.1549937675981119,0.8039148752836636,0.40284221186824376,0.4198735567882555,1
0.3609475035915328,0.37303889078731584,0.7819310049999274,0.15062754869443246,0.8012908851181784,0.40221100320011643,0.40977099055307853,1
0.3486375957180251,0.3619519536118701,0.7812402689849998,0.14737727220557137,0.7983828175315171,0.40245970377520623,0.40016434681899765,1
0.3365801705906979,0.3507020702430829,0.7810161055811076,0.14536786116839345,0.7952105999636593,0.4036253196747824,0.3911579315142837,1
0.32479298973912524,0.33938305041620875,0.7812803311443385,0.144696783420044,0.7917955165630257,0.40572172377625837,0.3828290890583397,1
0.3132900861428728,0.32810770965506064,0.7819981606280821,0.14542800421757018,0.7881566462836709,0.40874042121162235,0.37522622623322605,1
0.30208262438611483,0.31700521730382114,0.7830820388859355,0.14758775568716875,0.7843072387782714,0.4126522952118679,0.3683681878623887,1
0.2911813114291711,0.3062176272890281,0.7843976856251119,0.15116254197410253,0.7802521385916266,0.41741019614096175,0.362244952506523,1
0.28060041033379707,0.29589558944754946,0.785771982852778,0.1560994898297141,0.7759872764423346,0.422952031597107,0.3568195500590598,1
0.27036261497283137,0.2861933700132874,0.7870026309108541,0.1623088487823065,0.7715017079134339,0.42920381889671294,0.35203104485747694,1
0.26050343949273924,0.2772633973266352,0.7878696133751149,0.16966824507355044,0.7667818706682098,0.43608208077138677,0.34779838088395804,1
0.25107369335245705,0.26925060241521553,0.7881482701315425,0.1780282421867753,0.7618169770368441,0.4434950800795322,0.34402485221187906,1
0.24213911565342225,0.2622868830730019,0.7876232363707644,0.18721882032764403,0.7566040894838605,0.45134269899811846,0.34060294353938464,1
0.23377712289037542,0.25648605145485914,0.7861019458050982,0.19705647352960087,0.7511516183833568,0.45951518582067463,0.3374192828850085,1
0.22607150169528192,0.25193954638180843,0.7834261644854182,0.20735166031775587,0.7454806563276372,0.4678913828879017,0.33435946069845257,1
0.21910635426563,0.24871301518917324,0.7794802939996581,0.21791629583354707,0.7396244011274563,0.4763372735117915,0.33131249517358036,1
0.21296045323217525,0.2468437330918996,0.7741958493741513,0.22857085805487254,0.7336265068856105,0.4847056504203887,0.3281747600203641,1
0.20770249545351566,0.24633882587864683,0.7675522624600123,0.23915057634523545,0.7275392584494954,0.4928374270782083,0.32485323532738514,1
0.20338699527761495,0.24717433590025178,0.7595746797036085,0.24951018012210258,0.7214220130437774,0.5005647243347547,0.3212679910474676,1
0.2000502111744572,0.24929521564569396,0.7503295997204446,0.25952686221155924,0.7153397057218756,0.5077155411172564,0.3173538626123627,1
0.1977057393767655,0.252616327809605,0.7399191273638539,0.2691014136251815,0.7093607716708613,0.5141196443331812,0.31306132595912395,1
0.19634001920146324,0.25702451072407656,0.7284744833250166,0.2781578064245157,0.7035538492389913,0.5196152587808371,0.30835662197238656,1
0.1959085718013699,0.2623817275140471,0.7161493156515522,0.2866417301239936,0.6979830777155518,0.5240561263590818,0.3032212157435573,1
0.1963340115616088,0.2685292175126076,0.7031133124278026,0.2945186596664936,0.6927024527222615,0.5273184868842921,0.2976507025610651,1
0.19750662186576615,0.2752924157971578,0.6895465389335041,0.3017719476851053,0.6877502244587366,0.5293075089373752,0.29165328938547913,1
0.19928770441767926,0.2824862759144964,0.6756347416303607,0.3084012506555516,0.6831444726748683,0.5299626941542771,0.2852479876996414,1
0.20151527718965245,0.28992061227286803,0.661565552596582,0.314421403285637,0.6788807130756042,0.5292618205401793,0.2784626517126151,1
0.20401129029182646,0.2974052084309896,0.6475251486424619,0.31986170545099485,0.6749318383032048,0.5272230943427024,0.2713319861483477,1
0.2065894867397208,0.3047546597626349,0.633694608591678,0.3247654899092375,0.6712501429098606,0.5239053357483359,0.2638956318651348,1
0.2090633044577798,0.31179311133373694,0.6202451446543185,0.3291897790502173,0.6677708588188191,0.5194061947234735,0.2561964171383394,1
0.21125360207722024,0.3183591048725834,0.6073316669539813,0.3332047956280521,0.6644166127858376,0.5138585343613835,0.24827883944349327,1
0.21299624847586138,0.3243106348077486,0.5950847313395328,0.3368930541806067,0.6611024117150299,0.5074252031222835,0.24018781874574652,1
0.2141495756577205,0.32953028872292317,0.58360163728909,0.3403477298788875,0.6577409711427022,0.5002924506425432,0.23196774017690136,1
0.21460137684627567,0.33393010105541276,0.572938048607506,0.34367000430769745,0.6542482619110349,0.4926622602107938,0.22366178283747445,1
0.2142747492249868,0.33745555956083584,0.5631018036171737,0.34696516105184594,0.6505490193800965,0.4847439197436046,0.21531151327294254,1
0.2131319021520176,0.3400881379885303,0.5540504535130346,0.35033737472967563,0.6465817348025922,0.4767452523423043,0.20695670760752052,1
0.21117522521251827,0.34184583322456563,0.5456935268028557,0.3538833955698226,0.6423024945238516,0.4688640468642716,0.19863535574586555,1
0.20844538691617345,0.3427814511647198,0.5378997015893506,0.3576856243910856,0.6376870832774558,0.46128030034787365,0.1903837945731492,1
0.2050168247820588,0.3429787207082772,0.5305082088924108,0.3618053202545697,0.6327310542236032,0.4541498473804387,0.18223691456678784,1
0.2009914724691707,0.3425465932454608,0.523343127047165,0.36627681139774365,0.6274479038475096,0.4475997923550005,0.17422838536836072,1
0.19649178332959957,0.3416122366594867,0.5162288973605395,0.3711035495468742,0.621865908688083,0.441725915286905,0.16639085021598324,1
0.19165398480387733,0.34031328380940307,0.5090053948913844,0.37625666080090836,0.6160244159367104,0.43659195688701663,0.1587560461957856,1
0.1866221007019398,0.3387899103350491,0.5015411319454982,0.38167633864935135,0.6099703472994977,0.4322304749612841,0.151354816492697,1
0.18154280102081083,0.3371773224171393,0.4937435346104307,0.38727605362220674,0.6037554166763677,0.4286448543989103,0.14421699165256138,1
0.1765608017203789,0.33559920923697206,0.48556561094240414,0.39294918918442473,0.5974342125873404,0.42581206229884133,0.13737112875502241,1
0.17181445302588644,0.33416262728346807,0.4770086654290015,0.39857742155749115,0.5910630036764699,0.4236858407876814,0.13084410977869063,1
0.16743128724948464,0.3329546263753002,0.4681210073079157,0.40403998588576057,0.5846989779476726,0.4222001676494816,0.12466061274090803,1
0.16352353002662726,0.3320407127342751,0.45899288284423073,0.4092229225001415,0.578399628189058,0.4212729330829635,0.11884248081822874,1
0.1601837999866521,0.33146500461433714,0.4497481507520284,0.414027457609443,0.5722220909010792,0.4208098435845032,0.11340802499050961,1
0.15748135259373502,0.33125172627037397,0.44053349220936255,0.41837681236270463,0.5662223592988814,0.4207085604805291,0.10837130419559368,1
0.15545923041872337,0.3314075653572427,0.4315061593944998,0.42222092060493965,0.5604543686861729,0.42086302351053206,0.10374143296261581,1
0.15413258557131548,0.33192441266236766,0.42282138324144775,0.42553874109941464,0.5549689799313721,0.42116783003118624,0.09952196951467181,0
0.15348829818187715,0.3327820908532922,0.41462055732411196,0.4283380575662241,0.5498128805653454,0.4215224763117711,0.09571043701944283,0
0.15348588171227032,0.33395081577643865,0.407021180452291,0.4306528649523865,0.5450274089137367,0.42183524749750756,0.09229802680440834,0
0.15405957278809643,0.3353932769740234,0.40010929498116504,0.4325386425614753,0.5406473027349861,0.4220265724263878,0.08926952492572585,0
0.15512146652212305,0.3370663430881684,0.3939348504136847,0.4340660065207649,0.5366993878700125,0.42203172064037686,0.08660349269863951,0
0.15656557874646454,0.3389224760775105,0.38851011219919923,0.4353133954618828,0.533201255948883,0.42180278085430517,0.08427271811808466,0
0.1582727651891054,0.34091097499485956,0.3838109709037548,0.43635954513660835,0.5301600293312803,0.4213098940966598,0.08224493922021339,0
0.1601164519628735,0.3429791765752242,0.3797808078313607,0.43727652354229746,0.5275713650690163,0.42054170958392734,0.08048382328175956,0
0.16196908960048073,0.34507372544721937,0.37633643212540435,0.43812401818605456,0.5254188911971235,0.4195050027515677,0.0789501684286098,0
0.1637091263990486,0.3471419925953527,0.3733755013085642,0.43894540303126994,0.5236742819994086,0.41822337849970115,0.07760327794716859,0
0.16522812826098376,0.3491336678961938,0.3707847642578235,0.43976588995713495,0.5222981528680849,0.41673501303736943,0.07640244360973297,0
0.16643749240813033,0.351002488780556,0.36844843709695396,0.4405928181767777,0.5212418831904732,0.4150894762397081,0.07530846381087712,0
0.16727406591220476,0.3527080034884317,0.36625605882585927,0.44141788655171227,0.5204503542425923,0.4133438054908268,0.07428511625425353,0
0.16770394810761677,0.35421721637868653,0.3641092760522143,0.4422209210340699,0.5198654258410906,0.41155813510885414,0.07330050402877568,0
0.1677238803538624,0.35550593801742536,0.361927151482692,0.4429746226326665,0.5194298018406764,0.4097912833189782,0.07232819849774406,0
0.16735992326030422,0.35655967402084715,0.35964974994666643,0.44364967895650453,0.5190908086681921,0.4080967309728098,0.0713481123958255,0
0.166663540287503,0.35737393272460555,0.3572399131240307,0.44421964456522145,0.5188035939985574,0.40651937898420976,0.07034705134895879,0
0.16570562893916269,0.35795389989916704,0.35468328439209507,0.44466508534498794,0.518533367140232,0.40509335314840117,0.06931891075429691,0
0.16456933244317987,0.3583134998438542,0.3519867796881539,0.4449766170400097,0.5182565106116156,0.40384096550371323,0.06826450629790022,0
0.16334255043482862,0.358473921025324,0.34917580445912483,0.44515662680564794,0.5179606134486043,0.40277278006239187,0.06719104883433841,0
0.162110956820706,0.35846172842649665,0.3462905766079504,0.4452196291076681,0.5176436326841619,0.40188860017397954,0.06611129629142481,0
0.1609520946001761,0.3583067194902151,0.343381924435075,0.4451913527836459,0.5173124421588775,0.40117911370168474,0.06504243511763778,0
0.15993084239862923,0.35803970692661796,0.3405068951374876,0.4451067672682634,0.5169809928466178,0.40062790795471476,0.06400476014722861,0
0.1590963220818743,0.357690424310307,0.33772445753979885,0.44500732407766275,0.5166682384949929,0.400213595560977,0.06302023348173114,0
0.15848018378699208,0.3572857435661256,0.33509153726457147,0.4449377166266779,0.5163959265122763,0.39991185880252617,0.0621110092971689,0
0.15809614797918456,0.3568483618376956,0.3326595878903769,0.4449424576089645,0.5161863381337007,0.3996972980100458,0.06129801201115655,0
0.15794066426854428,0.3563960573866668,0.33047186144368,0.44506254965599834,0.5160600744633433,0.399545034459934,0.06059965003301609,0
0.15799453914808698,0.35594153936060685,0.3285614822601513,0.4453324885254507,0.5160340057518285,0.39943205322137193,0.06003073682795614,0
0.1582253805910886,0.3554928400264736,0.32695035634156844,0.44577779365510667,0.5161195154300079,0.3993382747028949,0.05960167606792048,0
0.15859070122185068,0.35505413261824936,0.32564888193326696,0.44641321501012815,0.51632117169575,0.3992473298046519,0.05931794932214885,0
0.15904150889341404,0.3546268124539624,0.3246563762202419,0.447241722626425,0.5166359461394886,0.39914700402914144,0.05917992436951227,0
0.15952618876533567,0.35421066146157815,0.32396209441376483,0.44825434592117674,0.5170530694491126,0.3990293247748577,0.05918298120991621,0
0.15999444176553265,0.3538049294497188,0.32354668694234723,0.44943088914409757,0.5175545667486333,0.3988902943964701,0.059317932639048485,0
0.16040100156906772,0.3534092042373713,0.3233839231655548,0.45074150056637063,0.5181164516899162,0.39872931138575907,0.05957169816592708,0
0.16070883087105098,0.3530239960116019,0.323442515389056,0.45214901036813376,0.5187104886351604,0.3985483620648454,0.05992817525536906,0
0.1608915173877308,0.3526510151703497,0.3236879090687362,0.45361187622572197,0.5193063697265811,0.3983510950333916,0.06036924127574466,0
0.16093465075785013,0.3522931657371429,0.3240839567815997,0.45508749733035403,0.519874108088317,0.39814190309200737,0.06087581372725404,0
0.1608360548923839,0.3519543045105305,0.3245944437895916,0.4565355960742996,0.5203864224878115,0.3979251310611146,0.06142889557697641,0
0.16060487276451202,0.35163883526129447,0.32518445749548597,0.4579213403470246,0.5208208825414532,0.3977045062746291,0.062010536740963275,0
0.160259643453874,0.3513512248968131,0.32582158626132374,0.45921789736591306,0.5211615997503294,0.397482854881303,0.06260465149785176,0
0.15982564638421573,0.3510955414515077,0.32647691394325606,0.46040816982561955,0.5214002922845282,0.39726212304129527,0.06319764415663663,0
0.15933187676910948,0.3508751089660599,0.3271257675362908,0.461485556691872,0.521536619469417,0.39704367222783654,0.06377881065097823,0
0.158808033349215,0.35069234462827853,0.3277481830123643,0.46245368933250136,0.5215777661584833,0.39682877219254775,0.06434050073946826,0
0.15828184428535724,0.3505487969026306,0.3283290729833352,0.46332520124073434,0.5215373426818846,0.3966191849405638,0.06487804291540483,0
0.15777695353162383,0.35044535441694397,0.3288581032024605,0.4641196806468006,0.5214337371617187,0.3964177252811944,0.06538945073587496,0
0.15731147432594325,0.35038255693646847,0.32932930861195997,0.46486102117978584,0.5212881024420042,0.39622869869506555,0.06587494392819453,0
0.15689722139328538,0.35036092331115004,0.32974049665566596,0.46557442489826595,0.5211221771447826,0.3960581488623881,0.0663363293579907,0
0.1565395781636064,0.35038122326645293,0.33009248861181495,0.4662833265786166,0.5209561361570904,0.39591388333992544,0.0667762950262934,0
0.15623793978608264,0.35044465276109793,0.33038823900139236,0.46700650179501396,0.5208066511860625,0.39580527485185174,0.06719767427213189,0
