x-axis (g),y-axis (g),z-axis (g),x-axis (deg/s),y-axis (deg/s),z-axis (deg/s),energy,movement
0.5809109646950663,0.13863304196800336,0.9091677153431512,0.5861155511408521,0.0,0.28242862767687915,0.3592859805421523,1
0.599628491462609,0.13785550013286846,0.9198672131524006,0.5855139281384929,0.001651082248454411,0.29383624697067373,0.37976070516795085,1
0.6187783249507682,0.13692283856093387,0.9300045717748733,0.5852278864964677,0.005368754552632218,0.3047337369941886,0.40034594602471374,1
0.6381638580701545,0.13584976805862226,0.9395166607405318,0.5852458482646304,0.011240267411906271,0.31502630147336197,0.42087038543857247,1
0.6575506220087701,0.13465778472181728,0.9483405679105323,0.5855584249307939,0.019286104395652513,0.32462865852823264,0.4411612676838705,1
0.6766773875143237,0.1333743645516025,0.9564166608871236,0.5861563867700675,0.029454858159035424,0.3334706711075501,0.46104777887594767,1
0.6952698685900206,0.13203171527323476,0.9636925828886839,0.5870285744859294,0.04162253392887353,0.3415022753095921,0.48036459260093634,1
0.7130557125409499,0.13066500749074875,0.9701275774855073,0.5881600875005231,0.05559649294027453,0.34869721316457114,0.4989554657038202,1
0.7297794582143169,0.12931019275425526,0.9756963422916359,0.5895310159436291,0.07112378266800944,0.3550551781182662,0.5166767504369968,1
0.7452163303764618,0.1280016580414172,0.980391696379948,0.5911158825844476,0.08790320387484864,0.36060214065271967,0.5334006796215411,1
0.759183937835225,0.12677001076626432,0.9842256427116199,0.5928838562247334,0.10560016549517103,0.36538881376411136,0.5490182817844593,1
0.7715510913875591,0.1256402584887749,0.9872287580685295,0.5947997016415785,0.12386317333120424,0.36948741282719255,0.5634417937087889,1
0.7822431046707121,0.12463058418349661,0.9894481313163535,0.5968253428845004,0.1423406803635627,0.37298703282870765,0.5766064578631604,1
0.791243155086232,0.12375183548380227,0.9909442480538171,0.598921832653729,0.16069700656954425,0.37598808693275193,0.5884716203197488,1
0.7985896182050359,0.12300774572594189,0.9917872953644187,0.6010514493302037,0.1786261427509782,0.37859631312892267,0.5990210788902469,1
0.8043697479880797,0.12239579084219257,0.9920533734213531,0.6031796152333743,0.19586250087642054,0.3809168607299503,0.6082626686916222,1
0.8087105328354722,0.12190847289357173,0.9918210617067771,0.6052763732478865,0.21218803183551957,0.3830489245017295,0.6162271103442815,1
0.811767827252619,0.121534742448248,0.9911686653358688,0.6073172668545664,0.22743552721904564,0.38508131119731814,0.6229661816797057,1
0.8137148696842434,0.12126127695712885,0.9901722534490947,0.6092835970942824,0.2414882812245745,0.38708920776669836,0.6285503046484893,1
0.814731154109499,0.12107344113799764,0.988904362695324,0.6111621312343091,0.2542765769756735,0.3891322797984575,0.6330656630304435,1
0.8149924787903301,0.12095592359050295,0.9874330771915014,0.6129443898512591,0.26577168337458335,0.3912540778104315,0.6366109821815711,1
0.8146629039365944,0.1208931830201041,0.9858211749249434,0.6146256496063377,0.275978219042661,0.393482590236577,0.6392941088010342,1
0.8138892470222229,0.12086987835430957,0.9841251384586452,0.6162037906073828,0.2849258545405289,0.39583167681877346,0.6412285267480057,1
0.8127985266903798,0.12087139277884067,0.9823940021319031,0.6176781097738328,0.29266135259071024,0.39830305591081233,0.642529935204477,1
0.8114983790576318,0.12088444058584816,0.9806681708326983,0.6190482222872534,0.29924184896362427,0.40088850279777444,0.6433129995006054,1
0.8100799666060147,0.12089763768916764,0.9789784369559184,0.6203131747469949,0.30473003511115,0.40357193734378577,0.6436883646603746,1
0.808622436967834,0.1209018786278954,0.9773454276031696,0.6214708818695769,0.3091915442317355,0.40633113679138144,0.6437599993625255,1
0.8071977347405466,0.1208904099904358,0.975779658062573,0.6225179641865443,0.312694437303141,0.40913890745598097,0.6436229156912896,1
0.8058745924616335,0.12085859076536216,0.9742822742941858,0.6234500080620842,0.3153103240179606,0.4119636848830997,0.6433612896657426,1
0.8047207852990685,0.1208034333816013,0.9728464443674207,0.6242622002251245,0.31711640742719915,0.41476968375811923,0.643046990539056,1
0.8038031438024866,0.12072308652858392,0.9714592269425296,0.6249502202067875,0.3181976460595512,0.41751684741769757,0.6427385141419198,1
0.8031852963374894,0.12061643291257017,0.9701036538160221,0.6255112209471849,0.3186482830806273,0.4201609147383787,0.6424803073923308,1
0.8029235746237813,0.12048292724380166,0.9687607623445388,0.6259447054801063,0.31857217203430066,0.42265391236807387,0.6423024672135416,1
0.8030618773532302,0.12032270543138131,0.9674114058348997,0.6262531270272241,0.31808158780054746,0.4249453014557098,0.6422207967190728,1
0.8036264682389711,0.1201368903285774,0.9660378000825632,0.626442100467232,0.31729449262899806,0.42698388596852394,0.6422372035278878,1
0.8046216410478527,0.11992794663600115,0.9646248518126711,0.6265201978695812,0.31633047427746,0.4287204517854829,0.6423404281845261,1
0.8060269497019611,0.11969992690710728,0.9631613145760959,0.6264983829353461,0.3153057490343105,0.4301109725136795,0.6425070935944787,1
0.8077963841828626,0.11945849953180016,0.9616407504214155,0.626389197349265,0.31432771790651765,0.43112010681281754,0.6427030679980307,1
0.8098595794416921,0.11921072772351483,0.9600622009199793,0.6262058384380402,0.3134895916866756,0.4317246413081284,0.6428851333919244,1
0.8121249203208282,0.11896464010539758,0.9584304353054658,0.625961264795736,0.3128655766163578,0.4319165150740935,0.6430029478686341,1
0.8144842471628218,0.11872867893380698,0.9567556582958817,0.6256674408283134,0.31250704784208766,0.43170509287865755,0.6430012838090595,1
0.8168187638243602,0.1185111269393794,0.9550526185193551,0.62533479013883,0.31244003908822765,0.4311184190510976,0.6428225142921553,1
0.8190056966319581,0.11831959628872762,0.9533391492804788,0.624971881709267,0.312664250887165,0.43020326565747613,0.6424093078299307,1
0.8209252363925914,0.11816061824507638,0.9516342793434046,0.6245853328375005,0.31315363684424713,0.42902387859756963,0.6417074772171072,1
0.8224672969201543,0.11803932354869774,0.9499561500425923,0.6241798851530179,0.3138584821973493,0.42765942004810537,0.6406689127431079,1
0.8235376361017152,0.11795918282107634,0.9483200438214465,0.6237585944948482,0.3147087579610119,0.4262002029655128,0.639254514273888,1
0.824062926726917,0.11792179697377765,0.9467368440102552,0.6233230676113699,0.31561843290425745,0.42474290816493315,0.6374370219376063,1
0.8239944655962985,0.11792677435373028,0.9452121902909008,0.6228736756640015,0.31649036682764964,0.42338505825079437,0.6352036326050511,1
0.8233103822988629,0.11797176733321263,0.9437464835944863,0.6224096791710507,0.3172213990282846,0.42221908534784464,0.63255828035723,1
0.8220164145327533,0.11805272910580096,0.9423357717875809,0.6219292169149634,0.31770728488036964,0.42132636406089163,0.629523454985695,1
0.820145487330287,0.11816438499851946,0.9409734546370596,0.6214291439583847,0.317847214337205,0.4207715853039063,0.6261414345061489,1
0.8177564305112356,0.11830082791225152,0.9396526959862436,0.6209047462527417,0.3175477611480214,0.4205978224304593,0.6224748167510057,1
0.8149321984352297,0.11845609577490746,0.9383694027923578,0.6203494028582199,0.31672625372044494,0.420822593762883,0.6186062521480999,1
0.8117779308815772,0.11862459570123236,0.9371255889859282,0.6197543037795432,0.315313715691663,0.4214351641467114,0.6146373052218697,1
0.8084191008626861,0.11880129108115908,0.9359328691752286,0.6191083578406812,0.3132576704533968,0.4223952638771953,0.6106864061060523,1
0.8049998096819408,0.11898163037286526,0.9348157396259367,0.6183984381630245,0.3105251970064073,0.42363334770882727,0.606885894757454,1
0.8016810206977523,0.11916124874938602,0.9338142325270085,0.6176101043925696,0.30710661880838264,0.4250524779757871,0.6033782082223363,1
0.7986382513207738,0.11933551901797294,0.9329854987229786,0.6167288983183824,0.3030200798219002,0.4265318943356731,0.6003113130710743,1
0.7960580868849745,0.1194990689760561,0.9324039043273814,0.6157422303225892,0.2983170329370186,0.42793231802062714,0.5978335380447231,1
0.7941329014900151,0.11964539822064077,0.9321593306479529,0.614641774333427,0.2930883899790256,0.42910301346638796,0.5960880124018441,1
0.7930533265355898,0.11976669782434224,0.9323535305371394,0.6134261929155364,0.28747081918044876,0.42989057687209964,0.5952069592204662,1
0.7929982202613919,0.11985391529980441,0.9330945737929747,0.612103938368664,0.2816524687848004,0.43014932696747155,0.5953061255150138,1
0.7941221373264304,0.11989705322489172,0.9344895589740841,0.6106958264113012,0.2758772709472941,0.42975303584708047,0.5964796480539132,1
0.7965405973850149,0.11988566606097978,0.9366358522990903,0.6092370585121983,0.27044695395923385,0.428607568501944,0.5987956512923883,1
0.8003138062234302,0.11980952081462035,0.9396111539494624,0.6077783782037343,0.2657199686802634,0.42666382185188956,0.6022928489335939,1
0.8054298449724596,0.11965939697618028,0.943462739943391,0.6063860838098561,0.2621067095251758,0.42393019630426493,0.6069783718488041,1
0.8117886416577703,0.11942800771682562,0.9481963260850523,0.6051406796303613,0.2600606595772185,0.42048372002335704,0.6128269729145188,1
0.8191882180965474,0.11911102084363594,0.9537651470091297,0.6041340225167341,0.2600653819261782,0.4164788916457453,0.6197816665558883,1
0.8273147424131874,0.11870813928620504,0.9600600018505219,0.6034649048011694,0.2626175852840814,0.4121533126611305,0.6277557527233358,1
0.8357378208255117,0.11822416465147376,0.9669011507620316,0.603233106328447,0.26820679203232467,0.40782924376652957,0.636636059460546,1
0.8439122452805785,0.11766992161193159,0.9740330222298043,0.6035320506063102,0.27729242076593275,0.40391034304020246,0.6462871251224394,1
0.8511870883472263,0.11706288770717559,0.9811226717510207,0.6044403131658429,0.29027935352499423,0.4008730360732112,0.6565559422206587,1
0.8568226297922703,0.11642737672011923,0.9877627752650828,0.6060123479313054,0.3074932770379094,0.3992522341951764,0.66727681199739,1
0.860015149784103,0.11579416835205412,0.993479631497334,0.6082689108087058,0.329157251771474,0.3996214499447459,0.6782758237500673,1
0.8599291522886133,0.11519953904923355,0.9977462299340994,0.6111877625763091,0.3553710537284534,0.4025677402274781,0.6893744852118111,1
0.8557360720254864,0.11468369650605091,1.0,0.6146953206935564,0.3860948257735805,0.40866231176574275,0.7003920959471382,1
0.8466579465164851,0.11428864162511426,0.9996644620051458,0.6186599923825623,0.42113843542581936,0.41842802382531274,0.7111465757953419,1
0.832013923398427,0.1140554930525883,0.9961736743770915,0.622887944335058,0.4601576396163058,0.4323053948292175,0.7214536298677708,1
0.8112668961323288,0.11402133577522884,0.9889981098075283,0.6271220345677393,0.5026577033128548,0.4506190387635203,0.7311243388482024,1
0.7840671015171342,0.11421570929692892,0.9776703968373487,0.6310445415379142,0.5480045347252358,0.4735466981525848,0.7399614903069829,1
0.750289239627202,0.1146569381284892,0.9618092524912119,0.6342841630752445,0.5954427324757514,0.5010931698787761,0.747755190032372,1
0.7100596851331892,0.11534863823897157,0.9411399438634539,0.6364275020732553,0.6441192645066509,0.5330713996026413,0.7542784852851265,1
0.6637707872806389,0.11627690381035136,0.9155098149997143,0.6370348962573149,0.693110930571826,0.5690928134734993,0.7592838671595578,1
0.6120801916787669,0.11740883401466135,0.8848978680688284,0.6356600130877091,0.7414534402053836,0.6085685375818262,0.762501572521729,1
0.5558944600780324,0.11869309876113457,0.8494180931955408,0.6318721834781147,0.7881699724421031,0.6507225224802522,0.7636405593523805,1
0.49633774319382185,0.12006307725964423,0.8093170565531503,0.6252800647492462,0.8322974883028984,0.6946167673813792,0.7623928744544367,1
0.4347076183230798,0.12144271251388244,0.7649669239003581,0.6155549685857987,0.8729097583516237,0.7391878870730076,0.7584418731056511,1
0.372421316977405,0.12275467045243123,0.7168553771791131,0.6024521141650665,0.909136897015041,0.7832932828657042,0.7514744030884013,1
0.310956378988317,0.12392981514805237,0.6655736935162463,0.5858281960727406,0.9401819955870716,0.8257642928938974,0.7411966597385189,1
0.2517901560989587,0.12491660110376457,0.6118037188221784,0.5656539724186116,0.9653360617283091,0.8654630254928709,0.7273529933294977,1
0.19634239128438835,0.12568889630651425,0.5563038271156816,0.542021017228995,0.9839927737444453,0.9013391902579816,0.7097465503379605,1
0.14592427825085316,0.12625101499192493,0.49989345068143387,0.5151422655340983,0.9956644428369734,0.9324831396480144,0.6882603018591383,1
0.10169612570376761,0.12663924892482895,0.4434355392763843,0.485346448876386,1.0,0.9581714950444934,0.6628767968221619,1
0.06463434014541208,0.12691978674067433,0.3878164068356237,0.4530669304132525,0.9968048392181184,0.9779021436301171,0.6336949057524844,1
0.03550727472696499,0.1271834929174292,0.33392283753361507,0.4188257682250468,0.986061137211219,0.9914160631757262,0.6009419093140825,1
0.014858869359340821,0.12753851603436517,0.2826169651800022,0.38321404583495716,0.9679461133132091,0.9987043554439861,0.5649795344290597,1
0.00299901291143576,0.12810204071455797,0.23471012347609133,0.34686962270676586,0.9428448849095943,1.0,0.5263029316258903,1
0.0,0.12899260937521856,0.1909373414115174,0.31045350221710133,0.9113543374676991,0.9957550888758036,0.48553208682869786,1
0.005698999001749755,0.13032426911507672,0.15193425300157518,0.27462600478073884,0.8742748804465493,0.98660554324138,0.4433957233794766,1
0.01970685019108666,0.13220335220861118,0.1182179095647277,0.24002386904036244,0.832588103458984,0.9733263953552521,0.4007083230697396,1
0.041423705035351026,0.13472804249969228,0.09017248864660025,0.2072392924404481,0.7874200510529435,0.9567814844407233,0.3583414248011379,1
