x-axis (g),y-axis (g),z-axis (g),x-axis (deg/s),y-axis (deg/s),z-axis (deg/s)
0.2808544821111034,0.43463800078347553,0.4961746158802826,0.4733706669543355,0.6312754762392627,0.5638608456750246
0.28163341121211904,0.4336428406094994,0.49455800062008837,0.47553862998631674,0.6338200189722882,0.5634207670985325
0.28237417719574787,0.4326847849265715,0.49285216751765926,0.4776534232374717,0.6363192145488187,0.5629879267428811
0.2831298652333985,0.4318609267591696,0.4910600139706525,0.47965751967103537,0.6387473345524196,0.5625768312276062
0.28395533601004347,0.43126304438204843,0.48919708177011545,0.48149648712182264,0.6410808349150122,0.5622013640055775
0.284907753120129,0.4309780372804955,0.4872991031308092,0.4831241544625752,0.6433002907507418,0.5618772611028615
0.2860470750681939,0.4310889271250465,0.485428071958494,0.48450781057646186,0.6453923429696944,0.5616246559009087
0.28743617294278867,0.4316760611054773,0.4836760103645882,0.4856330378653428,0.6473514628787604,0.5614704257727235
0.2891402429534826,0.4328181501507384,0.4821658116789872,0.4865077695007996,0.649181326401278,0.5614501044289404
0.2912252377751917,0.4345928079678725,0.48104880979250736,0.48716517746271115,0.6508955958144681,0.5616091714379058
0.2937551399150161,0.43707632298659915,0.48049902429897073,0.48766504847265396,0.6525179360341793,0.5620035880999622
0.29678803646777563,0.4403424863315883,0.4807043346233683,0.48809338633351157,0.6540811438129835,0.5626995104229049
0.300371115064645,0.4444604054753551,0.48185511856688845,0.48856008821070696,0.65562533843632,0.5637721698756893
0.3045348691742596,0.4494913452412926,0.4841311290518058,0.48919467265648375,0.6571952459236767,0.565303966546597
0.3092869586867559,0.45548474554358137,0.48768755929725083,0.4901401800661139,0.6588366978801576,0.5673818642841112
0.31460630020082714,0.4624736598490693,0.4926413484746092,0.4915455115034255,0.6605925524148191,0.5700942116848647
0.3204380437614823,0.4704699325626172,0.49905880014352777,0.49355660828953496,0.6624983190848538,0.5735271359757275
0.3266901157834192,0.4794594820820874,0.5069455234719631,0.49630699121037913,0.6645778243602263,0.5777606694961473
0.3332319636251506,0.4893980760598142,0.5162395672037877,0.49990826429837937,0.6668392817719719,0.582864771944964
0.3398960241665479,0.5002079756256704,0.526808408699375,0.5044412352181582,0.6692721270144322,0.5888954075815637
0.34648226199389576,0.5117757873126801,0.5384501998930321,0.5099483061652949,0.6718449408747603,0.595890827091069
0.3527658942072068,0.5239517984344236,0.5508993770815788,0.5164277428380776,0.6745047131357764,0.603868190670694
0.3585081559587869,0.5365509885127243,0.563836432939459,0.5238303350109379,0.6771776029195843,0.6128206536139393
0.36346968542201774,0.5493558120010088,0.5769013490316436,0.5320588248334311,0.6797712326764236,0.6227150193884303
0.36742584318344723,0.5621207426236754,0.5897099170383556,0.5409703061634662,0.6821784240057776,0.6334900485767518
0.37018305348657016,0.574578463989894,0.6018719568137798,0.5503816012187717,0.6842821552128923,0.6450554952754222
0.37159508575178396,0.5864474913392738,0.6130102860001805,0.5600774133188895,0.6859614050801389,0.6572919254456927
0.37157810263467295,0.5974409213089207,0.6227792215206228,0.5698208517586394,0.6870974563885763,0.6700513538564142
0.37012329789824894,0.6072759355082008,0.63088140478464,0.5793657425423366,0.6875801762106664,0.6831587171511873
0.367306038620578,0.6156836333108808,0.6370818407111459,0.5884699915489112,0.6873137751259599,0.6964141798108299
0.3632906087865049,0.6224187421762064,0.6412182202455884,0.5969091672419212,0.6862215779105422,0.7095962472444755
0.35832991411546933,0.6272687511782228,0.6432068453611692,0.6044894274977288,0.6842494133881263,0.7224656362139608
0.352759832662687,0.6300620350992778,0.6430437775747194,0.6110589344547678,0.6813673461286608,0.7347698280413754
0.3469882578717656,0.6306745810093572,0.6408011644068217,0.6165169826030987,0.6775696185221775,0.7462482057986454
0.34147925185824307,0.6290349941522523,0.6366190387152518,0.6208202037465856,0.6728728358982258,0.7566376545169413
0.33673307663262086,0.6251275416606513,0.6306932080409876,0.6239853983701141,0.6673125947247741,0.7656784851246797
0.33326317065572314,0.6189930867973626,0.6232601304269254,0.6260887627341872,0.6609389081901882,0.7731205299536813
0.33157136226985906,0.6107278681420546,0.6145798877343855,0.6272615182408259,0.6538109086169958,0.7787292514536129
0.3321227411401029,0.6004801820970382,0.6049184999646944,0.6276821863685343,0.6459913880410298,0.782291706731354
0.3353216330748142,0.5884451277961579,0.5945308632157329,0.627565970995951,0.6375417662313175,0.7836222182744673
0.34149004112957654,0.5748576655787373,0.5836455355072434,0.6271518941683403,0.6285180435389217,0.7825676143152965
0.3508497351515899,0.5599843186004022,0.5724524422638018,0.6266884683683319,0.6189682041318971,0.7790119184141624
0.3635089103864073,0.5441139074960317,0.5610943377361746,0.6264187693984652,0.608931389518217,0.7728803840064975
0.37945401836218096,0.5275477468137066,0.5496625578231592,0.6265657952002417,0.5984389749833047,0.7641427826851428
0.3985470298328534,0.510589746927043,0.5381972568172803,0.6273189584827221,0.5875174701480621,0.7528158620683842
0.4205280517689018,0.4935368554599607,0.5266919623673957,0.6288224707556028,0.5761929505676792,0.7389648884519318
0.4450229183193078,0.47667023865946184,0.5151019377869931,0.6311662419755852,0.5644965332054963,0.7227041809080068
0.47155513450226433,0.46024754799538825,0.5033555363936416,0.6343797559485513,0.5524702571649314,0.7041965290255412
0.4995613884954978,0.4444965444610667,0.4913674936302175,0.6384292006345952,0.5401726414857744,0.6836513703378315
0.5284097713403454,0.42961026781213674,0.479052949284977,0.6432179482113453,0.5276831777240355,0.6613215920747298
0.5574198484650066,0.4157438464583912,0.4663409378358878,0.6485903043516932,0.5151050824458849,0.6374988232240432
0.5858838021816519,0.403012952493313,0.4531861359813482,0.6543382893511159,0.502565780839628,0.612507105629478
0.6130879862017788,0.39149382184872034,0.4395778109126328,0.6602110820113088,0.49021480543811696,0.5866948848992706
0.6383343746880757,0.3812246875150025,0.4255451608037174,0.6659266536813214,0.478219053224543,0.5604253488390706
0.6609615201956609,0.3722084186294834,0.41115856255010724,0.6711850445786004,0.46675562358893957,0.5340652645775235
0.6803647304424333,0.3644161227833721,0.396526616301813,0.6756826850113349,0.45600272861527297,0.5079726217218032
0.6960152133222925,0.3577914539691397,0.3817892715883434,0.6791271364809048,0.4461293958357754,0.4824835675316906
0.7074779132072476,0.35225537302628923,0.36710770188095854,0.6812516176071455,0.4372848452519869,0.4578993042831848
0.7144276719222218,0.3477111282459082,0.35265192788182537,0.6818286839202402,0.4295884972976749,0.4344737856789206
0.7166632101553969,0.3440492564844349,0.3385874405192803,0.6806824470269194,0.42312154610532643,0.41240317096766577
0.7141182663223964,0.34115244428523106,0.32506221269913305,0.6776987479588025,0.41792091334233883,0.3918180434278482
0.7068690853380789,0.3389001283797576,0.3121954919683808,0.6728327444522355,0.4139761933012057,0.37277934735601226
0.6951373586538498,0.33717275020170046,0.3000696227414278,0.6661134371974391,0.411229930764304,0.3552788246897311
0.6792877171159906,0.3358556054375057,0.2887258584675874,0.6576447514192172,0.4095812674612585,0.3392444303020116
0.65981900026426,0.3348422445609944,0.27816470844890057,0.6476029128840479,0.40889268255040395,0.3245507809976527
0.6373487875076322,0.3340373832573678,0.2683508546494228,0.6362300151069338,0.40899926941477627,0.3110341735170568
0.6125910789995552,0.33335927443528485,0.25922211999108447,0.6238238673350706,0.4097197635114607,0.29851113807761714
0.5863275380019789,0.33274148020207583,0.2507014332495172,0.610724436330965,0.4108683857015196,0.28679894214136387
0.5593733127140816,0.3321339686679176,0.24271028639580589,0.5972974390519634,0.41226650521356784,0.2757360050457918
0.5325390861172689,0.33150345387939284,0.23518188813240806,0.5839158922252751,0.4137531591788109,0.26519991532556264
