x-axis (g),y-axis (g),z-axis (g),x-axis (deg/s),y-axis (deg/s),z-axis (deg/s)
0.8167744631917836,0.3272223988275575,0.18645565204652886,0.593004741927953,0.811356451795375,0.6875754819771493
0.8262717782533826,0.33087770591168675,0.19277547255577232,0.5869449770694848,0.829684013712033,0.6751430391452269
0.8356974629854845,0.33462445370347765,0.19914085524172734,0.5807582866506703,0.8474518600171509,0.6626778896267023
0.8450628629868514,0.33861877515453764,0.20567346898130656,0.574260775489534,0.8640133111710928,0.6500806802134488
0.854381103944554,0.34299903838507184,0.21248170606469896,0.5672931188865732,0.8787819582899548,0.6372713299808109
0.8636655911250167,0.34787839183396413,0.2196522420129511,0.5597275567968194,0.8912577615439725,0.6241962661813142
0.8729283229547806,0.35333943930444656,0.2272432115749596,0.5514719778075434,0.9010474057611264,0.6108329016913494
0.8821779621843743,0.3594312275895753,0.23527934469045722,0.5424710189719427,0.907877987368215,0.5971911481699759
0.8914176648078769,0.36616852987812426,0.24374924586098365,0.5327043398824475,0.9116035826674151,0.5833120464031673
0.9006427335012283,0.37353323198195426,0.2526048509032345,0.5221824372703214,0.9122047242509314,0.5692638517267528
0.9098382272709098,0.3814774907488206,0.26176296909968483,0.5109405357943484,0.9097812554374166,0.5551361132632657
0.9189767112345147,0.3899282434651944,0.2711087230760817,0.4990312112831281,0.904539412884372,0.5410324157321765
0.9280163610119833,0.3987926057160777,0.28050063440316325,0.48651646846236235,0.8967742832091566,0.5270625064571498
0.9368996393315234,0.4079636994833426,0.2897770663466247,0.473460004261518,0.8868489769877239,0.5133345115557644
0.9455527362635936,0.4173264953861799,0.29876371962788956,0.4599203422316213,0.8751719577617438,0.4999478649984145
0.9538859111038989,0.4267633224198126,0.30728187433066867,0.44594542901133816,0.8621739574834671,0.48698744796867244
0.9617947990513497,0.4361587838586134,0.31515707324705466,0.43156914868659496,0.8482858128986362,0.47451928185698766
0.9691626579713644,0.4454039081270789,0.322227942678,0.4168100460932422,0.8339183849250821,0.46258795449410806
0.975863439865576,0.45439944893643974,0.3283548422645034,0.40167236790655114,0.8194454941022367,0.4512158023022222
0.9817654887618651,0.4630583226584676,0.33342802519085385,0.38614934373785986,0.8051905405625577,0.44040373414219874
0.9867356013444825,0.47130722822061205,0.3373749764893563,0.3702284512970019,0.7914171977400319,0.43013347498350324
0.9906431466136684,0.4790875338483786,0.34016658516559384,0.3538982519637375,0.7783242947473097,0.42037093405458925
0.9933639313339971,0.4863555361858953,0.3418218021199013,0.33715625621613615,0.7660447498366107,0.41107036370380745
0.9947835209270169,0.49308220298540145,0.34241044760169254,0.3200171904409458,0.7546481997950452,0.4021789691725783
0.9947997793421961,0.4992525042203715,0.34205386580324443,0.30252099315921904,0.7441467966221218,0.39364165053860184
0.9933244716423314,0.5048644223197064,0.3409231850134659,0.2847398721025756,0.7345035184068481,0.38540559919151096
0.9902838721274131,0.509927714444674,0.3392350316480578,0.2667838032264345,0.725642267208508,0.3774245245710872
0.9856184292380532,0.5144624820632362,0.33724466428479305,0.24880394498362265,0.7174590010153861,0.36966234489206345
0.9792816453859325,0.5184975884007239,0.33523663487414823,0.23099356961266856,0.7098331651226903,0.3620962314691554
0.9712384240863251,0.5220689544904256,0.33351324054703035,0.21358626916493137,0.7026387444405181,0.35471894478761196
0.9614632078423758,0.5252177602426288,0.3323811901233341,0.1968513671969429,0.6957543451864432,0.34754043821846076
0.9499382693961854,0.5279885779293318,0.3321370618870934,0.18108664623883453,0.6890718245158509,0.3405887308046863
0.9366525201295819,0.5304274706939426,0.33305226003182026,0.16660867487407235,0.6825031121829174,0.33391006429349174
0.9216011599313673,0.5325800965822034,0.33535827347442454,0.15374117563468645,0.6759850017653601,0.32756836364988495
0.9047864140837879,0.5344898673710006,0.3392330913039735,0.1428020062585711,0.6694818231360051,0.32164401798475833
0.8862194901343524,0.5361962193930274,0.3447896256715466,0.13408942429626042,0.6629860360169346,0.3162319942275253
0.8659237506756086,0.5377330590821505,0.35206693096221703,0.1278683629506688,0.6565169005160413,0.31143929321341896
0.8439389490268873,0.5391274478947826,0.3610248876056175,0.1243574612521968,0.6501174792014763,0.3073817610171424
0.8203262286912583,0.540398588779559,0.3715428445928742,0.12371756370487823,0.6438503021596329,0.3041802803616281
0.7951734595644786,0.5415571690458537,0.38342249597100664,0.12604233545148316,0.6377920784309099,0.3019563895053944
0.7686003887631816,0.5426051022728501,0.3963950165934973,0.13135153323057558,0.6320278624532858,0.30082740935188884
0.7407630337303849,0.5435356951167712,0.41013221760808355,0.13958733640264898,0.6266450824936973,0.3009012021279659
0.7118567481911547,0.5443342441777665,0.4242612208006767,0.15061398416041316,0.6217278110553253,0.30227073368547186
0.682117450783627,0.5449790444941819,0.43838191167533125,0.1642207938342395,0.6173516081719461,0.3050086616675621
0.6518206193283752,0.5454427661037766,0.45208623171938644,0.18012846059031173,0.6135792021404741,0.30916221772681607
0.6212778125195082,0.5456941301416088,0.46497822599387784,0.1979983703692619,0.6104571945939709,0.3147486873666329
0.5908306719136043,0.5456997931007991,0.4766936847669051,0.21744450459920725,0.6080138945384319,0.32175180950355575
0.5608425630061092,0.5454263293059044,0.4869182146859432,0.2380473849275626,0.6062583057353541,0.3301194139239954
0.5316882151371229,0.5448421894948617,0.4954026482552717,0.2593694053592213,0.605180219586063,0.3397625842383943
0.5037418959486486,0.5439195096359141,0.501974847197936,0.2809708324067979,0.6047513061133821,0.3505565745506338
0.477364789151101,0.5426356502420192,0.5065471675876101,0.30242572386634103,0.6049270515974353,0.3623436202207396
0.45289232067358326,0.5409743633103484,0.5091191197559405,0.32333702438593726,0.605649363755654,0.3749376700017103
0.43062219005188906,0.5389265114966562,0.5097750573793881,0.3433501399862247,0.6068496529954761,0.3881309345746927
0.4108038103811174,0.5364903010059164,0.5086770484483225,0.3621643713430705,0.6084521986044996,0.4017020038820474
0.3936297478392886,0.5336710335111862,0.5060533949977114,0.3795416927752117,0.6103776182315501,0.4154251436659933
0.3792295937608751,0.5304804296057685,0.5021835571751332,0.39531249521911216,0.6125462738922428,0.42908025273518763
0.36766651656403904,0.5269356222695447,0.49738048009217894,0.40937806095082246,0.6148814647442175,0.4424628597041185
0.3589365482376487,0.5230579583613739,0.4919715009341011,0.42170969883430565,0.6173122738472545,0.45539347371828515
0.3529704812492624,0.5188717738410932,0.4862791145316483,0.4323446345275175,0.6197759523186371,0.46772558870105635
0.34963810451734934,0.5144033193130944,0.4806028882110644,0.4413789132920191,0.6222197404764865,0.47935168275565615
0.34875440417860876,0.5096800027060165,0.4752037369505665,0.4489577267080741,0.6246020437323185,0.4902066573797263
0.3500873020797934,0.5047300833786701,0.47029159959595235,0.45526371160958523,0.6268929038442617,0.5002683240665716
0.35336650047661267,0.49958289698598773,0.46601730460734164,0.4605038829723829,0.6290737363217817,0.5095547620801837
0.3582930364533954,0.4942696162255754,0.46246909461629104,0.46489594565207454,0.6311363440462626,0.5181186281888062
0.36454920964352167,0.48882446537478114,0.4596739143074918,0.46865477662860555,0.6330812656341551,0.5260387785566005
0.3718086144070388,0.48328621556610474,0.4576031825602615,0.471979874479252,0.634915572549031,0.5334098411658164
0.37974606517763254,0.4776997047770901,0.4561823982171549,0.4750445321618903,0.636650286756028,0.5403306262831158
0.38804723690810955,0.4721170648364392,0.45530360226941996,0.4779874006442973,0.638297643715205,0.5468924525123191
0.39641784316185613,0.46659831085498127,0.45483947031427524,0.48090697462805715,0.6398684649003663,0.5531685670948714
0.4045921421782707,0.46121096821579716,0.4546576671601228,0.48385935065610464,0.6413699203804524,0.5592058251461561
