x-axis (g),y-axis (g),z-axis (g),x-axis (deg/s),y-axis (deg/s),z-axis (deg/s)
0.4557715357733857,0.1590213883687654,0.6144466313935764,0.4220475013088471,0.15546269232011103,0.2609761608933187
0.43278057900889033,0.1429428810077776,0.6062478886288531,0.4002206007128363,0.14570522192252575,0.24446996412934113
0.4102048794844363,0.12742612214293833,0.5979738129980491,0.3788881550204077,0.13609103437835562,0.22848419027111427
0.3883056733868927,0.11310364685015345,0.5894100814083827,0.35874922534488307,0.12717849716563717,0.21356430795349682
0.3673068725901395,0.10054006385081277,0.5803659192054983,0.3404517402186422,0.1195177288391832,0.2001899590201329
0.3473817825001144,0.09020547552901821,0.5706799005308537,0.32456885975847555,0.11364215432821168,0.1887534659475517
0.32864373235172945,0.08245634497789978,0.5602225543006422,0.3115802112437842,0.11005956760291852,0.17954618345480072
0.3111415427208577,0.07752470506175835,0.5488960816753822,0.30185837510545016,0.10924174743643228,0.17275331550957096
0.2948602705041293,0.0755158528195865,0.5366317772877024,0.2956605950242882,0.11161200361205378,0.16845695783760123
0.2797271592286214,0.07641396807369955,0.5233859540666823,0.2931253580835728,0.11753049855643545,0.1666463420174224
0.26562223755760367,0.08009450559927,0.5091352798387068,0.2942732672038055,0.12727772851838332,0.16723363564077615
0.25239259684138576,0.08634178227167177,0.4938724342136029,0.29901151664597375,0.1410370846914501,0.17007325139191426
0.23986907257839307,0.0948699376021379,0.47760288992785155,0.307141273464733,0.1588778731419541,0.17498246253153327
0.22788387443680405,0.10534538919250447,0.46034342837375186,0.31836734134543354,0.18074048692564743,0.18176120904888446
0.21628766208856864,0.11740901625815879,0.44212273817602354,0.3323096078469817,0.20642554540214694,0.19020927729785403
0.20496464535877917,0.13069655276889205,0.4229841482531,0.3485159183841711,0.23558871893525318,0.20013949598561395
0.19384448358153872,0.1448560164859536,0.40299024546671286,0.36647614922801436,0.2677426430772781,0.21138615031282149
0.18291004968021016,0.15956139735137473,0.38222885365441467,0.3856373426711108,0.3022668228752062,0.2238084067479917
0.1722004829774574,0.17452223578145631,0.3608196335588283,0.4054198047705994,0.3384257863697401,0.23728909909829532
0.1618093510649424,0.18948910111800754,0.33892042335488537,0.42523404466164455,0.37539503502967414,0.25172969709632015
0.1518781433735339,0.20425530345924067,0.3167323901914729,0.4444983594374071,0.41229363479456893,0.26704262040621
0.14258569559305598,0.21865541851642173,0.29450310821437686,0.4626567537478596,0.4482216708579558,0.28314224929275583
0.13413446507236604,0.23256136513685058,0.27252681258103323,0.47919674839294174,0.4823003186182694,0.29993601150774224
0.12673481722632263,0.24587684811674068,0.25114128851963413,0.493666500074692,0.5137120109143454,0.3173168034962297
0.12058862246633381,0.2585309721995413,0.23072111960419925,0.5056905477003644,0.5417381332035709,0.3351577575914221
0.1158734910277763,0.2704717599420978,0.21166731598758184,0.5149834386162525,0.5657918538218998,0.35331003105108544
0.11272888752519514,0.28166018337362086,0.19439364547739874,0.5213604848666816,0.5854440716377401,0.37160390951834127
0.11124517644835853,0.2920651655289161,0.17931027283549208,0.5247449620560934,0.600440993763763,0.3898531302229074
0.11145637220340184,0.3016598410236595,0.16680555310096412,0.5251711912200808,0.6107124831754789,0.40786197937019847
0.11333702916328797,0.31041920087158736,0.15722700511429802,0.5227831297516671,0.6163709757182029,0.4254344370915207
0.11680334095626463,0.318319098672779,0.15086259935461935,0.5178283273653815,0.6177013956605556,0.44238445553519073
0.12171815909060782,0.3253364724638094,0.14792352335901002,0.5106473594900345,0.6151430453774134,0.4585463730911919
0.12789932327826273,0.3314505445485391,0.1485295380456499,0.5016591132133238,0.6092648690526014,0.47378449042516685
0.13513044915913863,0.336644702745618,0.15269791437245073,0.4913425495192571,0.6007357709706157,0.4880009511420937
0.1431731653675199,0.3409087400507913,0.16033675172126835,0.4802157811976922,0.590291802197847,0.5011412618996915
0.15177974263468239,0.34424113287728175,0.1712432405688557,0.46881347269451956,0.5787020270672243,0.5131970280992627
0.16070511313219685,0.34665106645159605,0.18510715818842616,0.4576636747165259,0.5667347664804537,0.5242057436704297
0.16971742760897648,0.34815996434977314,0.2015195944298548,0.4472652457894047,0.5551257190697637,0.5342477293012684
0.17860652049931827,0.34880234189328,0.21998661242424766,0.4380669833009185,0.544549215843086,0.5434405386184535
0.1871899214914835,0.3486258744587418,0.23994727304433472,0.43044949064810245,0.5355935983151491,0.5519313279290309
0.19531633478374755,0.347690646141503,0.2607952073258377,0.4247106519196417,0.5287414472803931,0.5598878009941879
0.20286677311264006,0.34606761642892797,0.28190272083447376,0.4210553814985478,0.5243551441943313,0.5674883923266766
0.20975375473030589,0.3438364078117168,0.3026462684334031,0.4195900760912755,0.5226680261731241,0.5749123442429268
0.21591912625195672,0.34108257138636333,0.32243205421628335,0.4203219357304082,0.5237811983871873,0.5823302738049869
0.22133114942432341,0.33789452699790923,0.3407204932972588,0.42316305385757746,0.5276658887885769,0.5898957293696824
0.22598148141332272,0.33436039676959234,0.3570483200293496,0.42793892025956876,0.5341710623441875,0.5977381181749862
0.22988259142936085,0.33056495451614026,0.3710472380706398,0.4344007491664823,0.543035848734329,0.6059572614791282
0.23306600485632184,0.32658689841052735,0.38245817549884076,0.44224085140083536,0.553906175474646,0.6146197153572477
0.23558156939787633,0.3224966217024991,0.39114042421597744,0.4511101249790733,0.5663548389764578,0.6237568929361057
0.23749772010796996,0.3183546091103969,0.39707519637724203,0.4606366510032582,0.5799040957070105,0.6333649428236551
0.2389025071500636,0.31421052897931334,0.40036340913010793,0.47044435563936504,0.5940497254842884,0.6434062794755903
0.23990496646084275,0.3101030288323785,0.4012177991520673,0.4801707353234546,0.6082854232690923,0.653812620965291
0.2406362807413709,0.30606018069318763,0.399949756448339,0.48948273804721004,0.6221263297195732,0.6644893619303017
0.24125011286334258,0.3021004688560372,0.3969515387828382,0.4980900418227152,0.6351305277220826,0.6753210868058058
0.2419215058839214,0.2982341724606656,0.3926747706680729,0.5057551619101155,0.6469174214334734,0.6861780035543517
0.24284383606745863,0.2944649729161485,0.3876063317265115,0.512300037922708,0.6571820791548424,0.6969230456053609
0.24422347256195961,0.29079161466387626,0.3822428875866694,0.5176089852619751,0.6657048570857118,0.7074193475356324
0.24627202709653195,0.28720946730803104,0.37706540329035865,0.5216281262244248,0.6723559151020767,0.7175377501920523
0.249196349868486,0.283711875386114,0.37251499776030633,0.5243616284656251,0.6770945680955786,0.7271639398786299
0.25318671870105114,0.28029123388956195,0.36897144422694583,0.5258652575928885,0.6799637611140521,0.7362047841633336
0.25840394871654226,0.27693978560471055,0.3667354947823693,0.5262378843426664,0.6810802840497775,0.7445934067017861
0.2649663886021195,0.2736501913548527,0.36601601005880563,0.5256116665398105,0.6806216219221308,0.7522925588742609
0.2729379372934206,0.27041596673161694,0.36692261387156677,0.5241416476821444,0.6788105426934088,0.759295909028638
0.2823182854953259,0.26723190027736615,0.3694642780091117,0.5219954782441008,0.675898634905231,0.7656269885440717
0.2930365405028847,0.26409456215434757,0.37355388879713,0.5193438782646704,0.6721500100221334,0.7713357088803381
0.30494922045845574,0.2610029768960353,0.3790184732030822,0.5163523306552299,0.6678262780699803,0.7764925875655179
0.31784330774423103,0.2579594718006451,0.3856143902689027,0.5131743378816508,0.6631737009603784,0.7811810759965001
0.33144464673604945,0.25497063256013813,0.39304644858201304,0.5099464067699244,0.6584131487471613,0.7854886402889742
0.3454314890451477,0.2520482139904766,0.4009896189705437,0.5067847647116595,0.6537331631602474,0.7894974721629572
0.35945247325942914,0.24920978457155488,0.4091118002180337,0.5037836722594894,0.649286110181903,0.7932758591221067
