x-axis (g),y-axis (g),z-axis (g),x-axis (deg/s),y-axis (deg/s),z-axis (deg/s)
0.553809342044597,0.238872195649949,0.2398428547870007,0.41286394638833146,0.9077096887296954,0.6664558847688946
0.5605769249180269,0.2448245878299065,0.23933085523356393,0.40228674179387375,0.9026650518757516,0.6653239014651503
0.5675333717624751,0.250889909580056,0.23893200125560138,0.3916094540288657,0.8973278894639084,0.6641872818080655
0.5750297107030804,0.2571840705207372,0.23885739544310727,0.3806319791276906,0.8912584215863653,0.6629938719945928
0.5833826513670206,0.2637990174818692,0.23930474905732255,0.36918059431728917,0.8840595416557945,0.66169391766198
0.5928608199058107,0.2707962429125037,0.24045253006107156,0.3571185789700587,0.8754025730729222,0.6602368780844458
0.6036747946208908,0.27820344750069287,0.24245511589555396,0.3443535373847573,0.8650489148651509,0.6585679153348901
0.6159710871563705,0.286014588215732,0.24543891245786498,0.33084117265899166,0.8528664128471715,0.6566245577425208
0.6298299235679349,0.2941932183449867,0.2494994143123987,0.3165855699723115,0.8388396236361678,0.6543340022555585
0.6452664371072694,0.30267871854295203,0.2546992110362433,0.3016363250211292,0.8230734922970219,0.6516114438199111
0.662234704263184,0.31139475719376086,0.26106697716049193,0.2860830760672,0.8057903221795707,0.6483597122207267
0.680633943672116,0.32025912741873686,0.26859750600299154,0.27004815108697816,0.7873202631272486,0.6444703704233679
0.700316153153224,0.32919400132328336,0.2772528512899979,0.25367811828711456,0.7680858699939026,0.6398262961281838
0.7210944769790306,0.3381356251301215,0.2869646193991718,0.2371350300370298,0.7485815771530973,0.6343056420012406
0.7427516633517685,0.34704254870755763,0.29763740846496034,0.22058808482733763,0.7293491867285645,0.6277869599603457
0.7650480785390036,0.3559016292390952,0.309153322076928,0.20420631179889448,0.7109506688158098,0.6201551884797687
0.787728876138631,0.36473125509360216,0.32137740229601036,0.18815272336147584,0.6939397111931964,0.6113081436443051
0.8105300648124067,0.37358148206009967,0.33416373937897553,0.17258020043229244,0.6788335248459493,0.6011631261252263
0.8331833640349754,0.3825310377461287,0.34736193548928096,0.15762918869972203,0.6660864028829785,0.5896632560915143
0.8554198750230566,0.3916814088242849,0.36082353823937013,0.14342710848347434,0.6560664403016921,0.5767831727686689
0.8769727148428726,0.40114845943364463,0.37440802707075466,0.1300892283282797,0.6490366514451854,0.5625337797809604
0.8975788592546645,0.4110522201463173,0.3879879383494604,0.11772063361252356,0.6451414774880792,0.5469657755960714
0.9169805092473322,0.42150562262261676,0.4014527570091849,0.10641884308142635,0.6443993705336685,0.5301717742977767
0.934926334036582,0.43260302761480646,0.414711282718597,0.09627659184417607,0.6467017922154449,0.5122868901146167
0.9511729475880163,0.4444094008940862,0.4276922916672781,0.08738430920448877,0.6518185958203054,0.4934877253331783
0.965486946040122,0.4569509356854644,0.44034345204745884,0.0798318708184398,0.6594093971508167,0.47398976257087255
0.9776477709869105,0.47020780860544775,0.4526286000163143,0.07370929141726687,0.6690402059888504,0.4540432175427278
0.987451571606029,0.4841095999040168,0.4645236293965457,0.06910613869645567,0.6802043100418677,0.4339274574580182
0.9947161224057004,0.4985337215770842,0.4760113782605893,0.06610958117806649,0.6923461948249001,0.41394413405126795
0.9992867205013996,0.513306993523692,0.48707599560115994,0.0648011219908132,0.7048871577617475,0.39440922050562083
1.0010428465858625,0.5282103033350898,0.4976973307861253,0.06525220527162737,0.7172512372277176,0.37564417960593244
0.9999052386804836,0.542986093413774,0.5078459003799011,0.06751900135569827,0.7288901243528164,0.35796652719073857
0.9958429099800334,0.5573482518019076,0.5174789486280775,0.07163677137285299,0.7393058478338126,0.341680090147302
0.9888795542854952,0.5709938495070015,0.5265380317354976,0.07761427355445145,0.7480702056451562,0.3270652903374607
0.9790987360772346,0.5836160732903036,0.5349484290176922,0.08542869733417177,0.754840145395969,0.31436981222167043
0.9666472660135133,0.5949176516608322,0.5426205271484879,0.0950215951209291,0.7593685492150344,0.3038000288328256
0.9517362214513105,0.6046240629986455,0.5494531511579556,0.10629622662711737,0.7615101422464701,0.2955135638911598
0.9346391854874335,0.6124958455039102,0.5553386432791034,0.1191166412374852,0.7612225008458818,0.2896133531230152
0.9156874415904858,0.6183393941814038,0.5601693339814686,0.13330870731442007,0.7585623747927651,0.28614353196276104
0.895262063349541,0.6220157240793853,0.5638449228229762,0.1486631629604092,0.7536777476222073,0.28508741800313475
0.8737830647379772,0.6234467945154234,0.5662802014117205,0.16494062136935805,0.7467962337058895,0.2863677750819148
0.8516960067332314,0.6226191188654917,0.5674125140680777,0.18187832668328213,0.7382105456838642,0.28984944436303345
0.8294566706817251,0.6195845217462336,0.567208366287982,0.19919833386099517,0.7282618590983878,0.295344311157854
0.8075145874152464,0.6144580437005819,0.5656686545578462,0.21661668763245537,0.717321952180516,0.30261845157955586
0.7862963362772013,0.6074131270921204,0.5628320967075032,0.23385310812124385,0.70577500866838,0.3114011789826669
0.7661895867433048,0.5986743407986924,0.5587765793972492,0.2506406584031427,0.6939999424327807,0.32139559579815435
0.7475288398700856,0.588508011076281,0.5536182956157143,0.26673487338117674,0.6823540376828835,0.33229016095727926
0.7305837366747499,0.577211217801745,0.5475087061978515,0.28192186819277737,0.6711586016396738,0.3437707146524729
0.715550641841843,0.5650996858717259,0.5406295116427365,0.29602501356808875,0.66068720263203,0.35553236685453904
0.7025479962213961,0.5524951480423215,0.5331859518230496,0.3089098586606539,0.6511569211884133,0.3672906573878579
0.6916156778666881,0.5397127757785418,0.5253988521248518,0.32048709099474626,0.6427228811674104,0.37879143411679456
0.6827183397105208,0.527049267378768,0.5174958991467324,0.33071343982441403,0.6354761592057859,0.3898189695464914
0.6757524246941841,0.5147721473804123,0.5097026550724855,0.3395905450629538,0.6294450011504736,0.40020193970693835
0.6705563179120125,0.5031107688676486,0.5022338086141878,0.3471619215872396,0.624599111343766,0.40981701507450013
0.6669228991923384,0.49224942296302543,0.49528511658659513,0.35350824214803833,0.6208566323207394,0.4185899524037044
0.6646136233153044,0.4823228510669849,0.4890264207044337,0.35874123708812194,0.6180933060025761,0.4264942188829995
0.6633731880933017,0.47341433023395796,0.4835960374979861,0.36299656321272633,0.6161532094630817,0.43354731636336097
0.6629438559653594,0.4655563665285619,0.4790967240916071,0.3664260268422026,0.6148603943026276,0.439805094939622
0.6630785694763744,0.4587338922515661,0.47559332712215474,0.3691895581102551,0.6140307325057733,0.4453544450114907
0.6635521361433551,0.45288972801534155,0.4731121329675024,0.3714473267655331,0.613483285335725,0.450304830408839
0.6641699400919463,0.44793194729249464,0.47164185936985575,0.3733523664376701,0.6130505649886693,0.4547791698780827
0.6647738494350439,0.4437426763806942,0.47113616388574286,0.3750440369925703,0.6125871485713515,0.4589045900727454
0.6652452108990884,0.4401877830350659,0.47151749364194456,0.37664260546087086,0.6119762251621809,0.46280356191139244
0.6655050379617834,0.43712685746231644,0.4726820621614812,0.3782451669435064,0.6111338016684554,0.4665858967898768
0.6655116887628387,0.43442287364266496,0.4745057100031764,0.37992305941274856,0.6100104524448213,0.4703420233115953
0.6652564815087229,0.43195093909325594,0.4768503837974801,0.3817208518557176,0.6085906605290219,0.47413789254014466
0.6647577985509276,0.4296055974898597,0.47957095064177574,0.38365690540609054,0.6068899538244124,0.4780117733288255
0.6640542812738622,0.42730623948025465,0.48252205064415987,0.38572542427051465,0.604950177059814,0.4819731012322632
0.6631977169650717,0.4250002991775874,0.4855646802889517,0.3878998306473721,0.6028333507050696,0.48600343622819786
0.6622461712050842,0.42266406202369217,0.4885721957332841,0.390137219858677,0.6006146441428725,0.49005946692751884
