x-axis (g),y-axis (g),z-axis (g),x-axis (deg/s),y-axis (deg/s),z-axis (deg/s)
0.9184492916113546,0.5920242583679085,0.28804023457718547,0.6768100214143926,0.22466786919750723,0.5078665971766727
0.8783837178736518,0.5262230579455585,0.30842992027763977,0.6547094621427273,0.2051267596936728,0.4473884258370507
0.8383153305485356,0.46112014969194015,0.32916494687167425,0.632813852973774,0.18522564902713087,0.3876102158756692
0.7980803939485495,0.3975943486696795,0.35028438522037725,0.6113910110378045,0.16496569444691722,0.329446137464717
0.757568641325213,0.3364917560203397,0.3717486123181597,0.5906964354597466,0.14441060741525488,0.2737747720311328
0.7167457869198547,0.27861606563090363,0.39340744461048255,0.5709730767243373,0.12371435813720974,0.2214319740665532
0.675667442794429,0.22471970172318007,0.4149796004678234,0.5524522984469893,0.10314160518300093,0.17320465024233872
0.6344835131582581,0.17549492472936573,0.4360463549916477,0.535355429699302,0.08307792244563877,0.12982421826136054
0.593433218502933,0.13156425313264447,0.45606066892207053,0.5198952058668341,0.06402776405460482,0.09195882615125278
0.552831897331117,0.0934698503830924,0.4743714014693423,0.5062763817330748,0.04659920816127313,0.0602038325496586
0.5130515314651798,0.06166187559759043,0.49026064312108447,0.4946948811188968,0.03147575843470459,0.03507050446934056
0.4744974619479852,0.03648615135102881,0.5029908893525201,0.48533501929296424,0.019376748242030988,0.016973321506791893
0.43758396567915614,0.018171821665058513,0.5118578385184839,0.47836458108159796,0.011009070928842946,0.006216636440732076
0.40271124736927383,0.00681992456536104,0.5162441073339892,0.4739278318521924,0.007013937811961661,0.0029816983153468255
0.370246002720888,0.0023939605898975615,0.5156691358365635,0.4721368456290843,0.007913044594681708,0.00731517775926827
0.3405070920237872,0.004713584991960153,0.5098309749285947,0.47306181694612626,0.01405883163076079,0.019120342664396772
0.31375711391077454,0.013452480736305691,0.49863644871317664,0.4767212450825743,0.02559341044794347,0.03815192533588895
0.29019988193045787,0.028141285558409408,0.4822172663668785,0.48307301212733644,0.04242019258650764,0.06401551934900153
0.2699830758815398,0.048176162896831146,0.4609309109087956,0.492007401251664,0.06419133165117497,0.09617207129073817
0.2532047484240042,0.07283324562273213,0.43534643404773193,0.5033430126614513,0.09031284865000187,0.13394771772122877
0.2399219786392284,0.10128877235166399,0.40621651977765777,0.5168263392684702,0.1199678602934189,0.17654888911570726
0.23015981550052583,0.13264431261617746,0.3744382401333229,0.5321354817513104,0.15215679960964693,0.22308228553432277
0.22391875413928686,0.16595607519322275,0.3410057313202371,0.5488881426702374,0.18575204889784658,0.2725790442014549
0.22117931566762986,0.20026694833137879,0.30695851122529355,0.5666536769763951,0.21956313478949302,0.32402218270420907
0.22190281030020906,0.23463966243255874,0.2733293145012072,0.5849686286464619,0.2524076851063351,0.37637622342763327
0.22602798646701205,0.26818931906645227,0.24109514449147218,0.6033548846705239,0.28318280859057127,0.4286177905004008
0.2334639262033425,0.3001135101580085,0.2111347666794299,0.6213393561466922,0.3109314831843211,0.47976592116963873
0.24408015729317528,0.3297183623741411,0.18419515491805566,0.6384739704079972,0.3348989329892909,0.5289108471890044
0.2576954403694189,0.3564390776161018,0.16086852598073248,0.6543547356998254,0.3545747992708108,0.5752400741723329
0.2740669951914333,0.3798538838960247,0.14158064632787817,0.6686387177526544,0.36971808654360805,0.6180607119365056
0.29288201802076225,0.3996907353037222,0.12659015513289715,0.6810579327212808,0.380363278228915,0.6568171793685084
0.3137532014244033,0.4158265718953173,0.11599780053824855,0.6914293929936164,0.38680753494013115,0.6911036149647015
0.33621961625517804,0.4282794328469695,0.10976379908475227,0.6996608164209396,0.3895803736182981,0.7206705595289075
0.35975379484526976,0.43719417118296694,0.10773104958107095,0.7057517993983968,0.3893985473664505,0.7454257301673057
0.3837752253154292,0.4428229106293324,0.10965168859243676,0.7097905354162996,0.3871098948372668,0.7654289633181834
0.4076698010903593,0.4455016853168686,0.11521446855894234,0.7119464127597229,0.38363062606463927,0.780881657051398
0.43081414111336247,0.44562489013545087,0.12407065306719336,0.7124590331235306,0.37988081689323167,0.7921112770150313
0.452603172191367,0.4436192324709295,0.13585652040265594,0.7116243484383811,0.3767227929383372,0.7995516944466028
0.4724789986729726,0.4399188144297539,0.15021109589625806,0.7097787135558806,0.3749066281631637,0.8037202882012269
0.48995891024118643,0.43494279836559535,0.1667883372611587,0.7072817000168266,0.37502622421445825,0.8051928575960507
0.5046604080069644,0.42907683645767924,0.18526361429975638,0.704498516923033,0.37748845748661713,0.804577453831303
0.5163213525293733,0.4226591030606553,0.20533489761005327,0.7017828469698133,0.3824967761874568,0.8024882431415595
0.5248137259155944,0.41597138665837957,0.2267195511295893,0.6994608375425507,0.39004949637565106,0.7995204666875295
0.5301500102321975,0.40923530805454644,0.2491479736401905,0.6978168963987015,0.399951974505733,0.7962274660757385
0.5324817636763143,0.4026133631030839,0.27235553257562545,0.6970818354747719,0.41184090149441294,0.7931006078107657
0.5320905690671455,0.3962141681711819,0.29607427323287844,0.6974237898071494,0.42521822845296053,0.7905527755494667
0.5293720837778573,0.3901010352442555,0.32002577662663506,0.6989422150078564,0.43949173483930143,0.7889059173536425
0.5248143912371981,0.38430283476633287,0.34391630192461314,0.701665138729724,0.45401900229390746,0.7883829476994322
0.5189722073670467,0.3788260241576545,0.367435017158185,0.7055497111613922,0.46815155818458704,0.789104121050929
0.512438709227187,0.37366672744037127,0.39025573375431405,0.7104859689767306,0.48127618087420715,0.7910878234995901
0.5058168193368922,0.3688218391121196,0.4120421578098175,0.7163035990243671,0.49285077914824144,0.7942555768018141
0.49969170181252304,0.3642982807778429,0.4324562936606834,0.7227813658512426,0.5024328265686948,0.7984409177409867
0.4946060208293628,0.360119745905097,0.4511693175740895,0.7296587551620174,0.509698997574263,0.8034017050501042
0.49103920217722036,0.3563305082050171,0.4678740074452239,0.7366492883563399,0.5144553638902889,0.8088353139963924
0.48939155557762204,0.35299612384694434,0.4822976841662246,0.7434548864033177,0.516638216684968,0.8143961017391458
0.489973693715394,0.3502011090776132,0.49421459676729323,0.7497806092970233,0.5163062355430644,0.8197144611248258
0.49300125981412696,0.34804390676006564,0.5034567606430009,0.7553490742282754,0.5136252896425143,0.8244167240090945
0.4985945842396088,0.3466296543585084,0.5099224207883037,0.7599138642381624,0.5088475972124397,0.828145126783342
0.50678256386407,0.3460614214430647,0.5135815372096908,0.7632712807459575,0.5022872628978949,0.8305770125547549
0.5175098220228369,0.3464306894873783,0.5144779501489348,0.7652698674176466,0.4942943449084878,0.8314424215025876
0.53064608055691,0.34780789629854963,0.5127281495504596,0.7658172369211762,0.4852295703410968,0.8305392213615777
0.5459966681272642,0.35023386049492333,0.5085168190768402,0.7648838619519833,0.47544162325031036,0.8277449639904403
0.5633131996065035,0.35371283936333214,0.5020895272946879,0.7625036416839781,0.46524859116963124,0.8230247326013697
0.5823036774151192,0.3582078599674812,0.493743081793767,0.7587712174705791,0.454924696862589,0.8164343774133327
0.602641563162066,0.3636388045953735,0.48381413898767706,0.7538361793867656,0.4446928974331568,0.8081187319011733
0.6239737120470427,0.3698835357353279,0.4726666754964928,0.7478944699793906,0.43472334536843493,0.7983046584757488
0.6459274093039274,0.37678212308191267,0.4606788875132442,0.7411774454488665,0.42513712541680565,0.7872890846858202
0.6681170475836489,0.3841439980231875,0.4482300108758569,0.7339391899863695,0.41601416171075983,0.77542254308357
0.6901511850638917,0.3917576241219992,0.4356874697849354,0.7264427893762889,0.4074037863049954,0.7630890943984323
0.7116407791571429,0.3994020515745205,0.4233946902580988,0.7189463491392747,0.3993362240608969,0.7506838607198071
