x-axis (g),y-axis (g),z-axis (g),x-axis (deg/s),y-axis (deg/s),z-axis (deg/s)
0.9874570855007266,0.5101019822137945,0.3423733435243006,0.27033127460429457,0.7261214789274867,0.3781226161048069
0.9805881332711579,0.5137415234208256,0.33900702025736834,0.2507922537184346,0.7188721916605934,0.3701555500042293
0.973530862861927,0.5173056661464508,0.3358267390087499,0.23149740993558343,0.7116555982705653,0.362266660828787
0.9658503252592125,0.5207361669870024,0.33317572547594526,0.21281777213544437,0.7044707598275914,0.35453342530752097
0.9571490391806082,0.5239824020973547,0.3313775122571389,0.1951100699170541,0.6973182404762119,0.3470292075427509
0.9470814956049048,0.5270038923900884,0.3307231371301694,0.17871274486382624,0.6902018429225083,0.3398250101213568
0.935364249193148,0.5297719769188218,0.3314596142604558,0.1639424943815358,0.6831301787147589,0.33299154916826357
0.9217817209421196,0.5322705010459806,0.33377993713826526,0.15109084852624907,0.6761179940181956,0.3266013551390074
0.9061881829826715,0.5344954843197783,0.3378148814385823,0.14042038832017043,0.6691871598409771,0.32073060074980686
0.888506642458087,0.5364538294302708,0.3436268909495766,0.1321603768120178,0.6623672337101266,0.3154603825601407
0.8687254689937621,0.5381612177068514,0.35120633422317404,0.1265017659068817,0.6556955120319605,0.3108772309717351
0.8468936179911738,0.5396394007919516,0.36047039984748974,0.1235917362861201,0.6492165198462218,0.30707269059430853
0.8231152036017376,0.540913138114326,0.3712648447183945,0.12352810021895133,0.6429809251092897,0.30414189346602943
0.7975439964998126,0.5420070445077715,0.3833687184881433,0.12635402787605338,0.6370439130428112,0.3021811350352037
0.7703781958708914,0.5429426033951141,0.396502060606974,0.1320536331131407,0.6314631058353256,0.30128455028399975
0.7418555885905603,0.5437355720152446,0.4103364117913448,0.1405489677030419,0.6262961570375924,0.3015400682286979
0.7122489957665937,0.544393961104363,0.4245078116412098,0.15169892368769078,0.6215981820784542,0.3030248911867749
0.6818617461027275,0.5449167176804008,0.43863178375486644,0.1653004382303326,0.6174192019621552,0.3058007955628794
0.6510228263875962,0.5452931814734246,0.45231965545265895,0.18109224556464015,0.6138017743567172,0.3099095796659875
0.620081350496916,0.5455033279016775,0.46519543677026165,0.19876124150458138,0.6107789656121725,0.31536898894206183
0.5894000570725811,0.54551875726932,0.4769124059060739,0.217951334600255,0.6083727819312036,0.32216942937803167
0.5593476796276295,0.5453043440118535,0.48716852515411757,0.2382744717557416,0.6065931330545552,0.3302717368347156
0.5302902100850274,0.5448204232690615,0.4957198471096932,0.25932336099779857,0.6054373535886522,0.3396062065455349
0.5025812712854457,0.5440253658091484,0.5023911650134615,0.28068528349189664,0.6048902617433563,0.3500730074012488
0.4765519976447938,0.54287837654902,0.5070833078535524,0.3019563006286703,0.6049246981484494,0.36154401567709105
0.45250096965021935,0.5413423461828807,0.5097766701596744,0.3227551256539294,0.605502462343044,0.3738660092355102
0.43068483620257625,0.5393865888800108,0.5105307847059452,0.3427359441541166,0.6065755531748431,0.38686507308643436
0.4113102756805922,0.5369893105149163,0.509479977796721,0.3615995308866484,0.6080876212259314,0.4003519875022045
0.39452788808507144,0.5341396701962342,0.5068253748712191,0.37910211554637085,0.6099755540883864,0.4141283069090324
0.38042848244795785,0.530839321685847,0.5028237329092955,0.3950615878999424,0.6121711350246709,0.42799279641576643
0.36904204034245525,0.5271033493983155,0.4977737515825536,0.4093607922848811,0.6146027377230953,0.4417478761723478
0.36033941904438,0.5229605448440308,0.4920006463001546,0.4219478309084291,0.617197039983764,0.4552057327030839
0.35423663185611454,0.5184530024658586,0.48583984599169644,0.4328334629603245,0.6198807534467735,0.46819378960274355
0.3506013342027401,0.5136350476628647,0.4796207034567411,0.44208584150102737,0.6225823723533644,0.480559284054873
0.34926097569202075,0.5085715432081178,0.47365107723384847,0.4498229632716264,0.625233940831899,0.4921727652995725
0.3500119683613571,0.5033356519992737,0.4682035657169295,0.45620331098894623,0.6277728259862991,0.502930409992231
0.35262918032362106,0.4980061628041027,0.4635040542315824,0.461415238743757,0.6301434652780896,0.5127551303662521
0.35687509395170536,0.4926645099936075,0.4597230837622366,0.4656656867111103,0.6322990345987337,0.5215965274351863
0.3625080621101642,0.48739163680143455,0.4569703770876026,0.4691688118148059,0.634202961916482,0.5294298071957159
0.3692892408911757,0.48226486309714256,0.4552926757233138,0.47213508873718185,0.6358301944114133,0.536253828385484
0.3769879536273879,0.4773549218920432,0.4546748603156898,0.4747613750258819,0.6371681180749518,0.5420884830463265
0.38538542667121045,0.4727233230117818,0.4550441578409374,0.4772223507113971,0.6382170304147131,0.5469716251010365
0.39427701066591775,0.4684201872254128,0.4562770893102812,0.4796636434307174,0.6389900804989854,0.5509557583694055
0.40347314267153733,0.46448266984063663,0.45820868783151103,0.4821968416183237,0.6395126160230705,0.5541046764945732
0.41279940039137136,0.4609340602312268,0.4606434229025483,0.4848964879227801,0.6398209129088894,0.5564902168395467
0.42209604212642593,0.4577836045044902,0.4633672047917139,0.48779903923538565,0.6399603064350893,0.5581892529062282
0.43121741419151144,0.4550270547368516,0.4661598131425484,0.4909036843570905,0.639982790324362,0.5592810097092202
0.44003154722111465,0.45264790264150473,0.46880709551777305,0.49417483004014734,0.6399441972310883,0.5598447479358303
0.4484201654405782,0.4506192113004322,0.47111231250277824,0.49754600424164563,0.6399011160694646,0.5599578290394346
0.4562792137132229,0.44890591897085247,0.47290606368268623,0.5009248837737766,0.639907734158951,0.559694147050229
0.46351988282480316,0.4474674571410375,0.4740543104567875,0.5041991324981056,0.6400128113753014,0.5591228951347466
0.47007000041354396,0.4462605037635547,0.47446411428530716,0.5072427347394086,0.6402569964761823,0.5583076259756308
0.4758755671855014,0.4452416840880007,0.47408682944300234,0.5099225243862228,0.6406706809056237,0.5573055640708217
0.4809021656360373,0.4443700370137495,0.4729186242155012,0.5121046398833935,0.6412725525990842,0.556167133477052
0.4851359565999985,0.4436090845749466,0.4709983496170903,0.5136606749721754,0.6420689632248847,0.55493567422742
0.48858400751663944,0.4429283750600089,0.4684029250375166,0.5144733401746687,0.643054160216932,0.5536473322637135
0.4912737603219647,0.44230441416187966,0.4652405593188528,0.5144414961863834,0.6442113647323512,0.5523311188821047
0.4932515372765997,0.44172095014806534,0.46164226567778033,0.5134844633590513,0.6455146043897382,0.5510091442904611
0.4945800878775169,0.4411686341121122,0.4577522502030445,0.5115455477537746,0.6469311421452435,0.5496970342611727
0.49533528605700294,0.4406441300896057,0.45371784585168257,0.508594751133269,0.648424286919211,0.5484045379730286
0.4956021812064433,0.4401487971426247,0.44967971608409607,0.5046306481777456,0.6499563340032222,0.5471363285894462
0.49547067803343353,0.4396871016331262,0.44576305447689235,0.49968141891423484,0.6514913689608016,0.5458929862544083
0.49503116076066467,0.4392649387621546,0.44207045108895326,0.49380501908324675,0.6529976807942923,0.5446721370356772
0.49437038249129467,0.4388880452388088,0.43867697925103916,0.48708845873205014,0.6544495691322215,0.5434697025720475
0.4935679107795059,0.43856066854219333,0.43562787964367616,0.4796461440811926,0.6558283937154532,0.5422811959711824
0.49269335983629703,0.4382846235562368,0.4329389908594212,0.4716172254440444,0.6571227971287161,0.5411029824041583
0.49180455627118286,0.4380588174803481,0.4305998137374997,0.463161891578868,0.658328125358283,0.5399334105662708
0.4909466893491538,0.4378792640523208,0.4285788249081737,0.45445656575797017,0.6594451649917359,0.538773716364375
0.4901524002722278,0.4377395452353788,0.42683040384630794,0.4456879981686857,0.6604783991120462,0.5376286051454557
0.4894426796423763,0.437631620701694,0.42530254156166253,0.43704631857789417,0.6614340446166544,0.5365064351363728
