x-axis (g),y-axis (g),z-axis (g),x-axis (deg/s),y-axis (deg/s),z-axis (deg/s)
0.4366646709531888,0.1793501012404607,0.20121633183969703,0.07520025376380814,0.3245292697615394,0.859664978314141
0.4565673800022854,0.20367237521670006,0.221673812595653,0.08064716852653442,0.31894166164970533,0.8591326747494727
0.47635540233459434,0.22798290579471636,0.24211182348912344,0.08630351945056544,0.3136067673817918,0.8584920767928346
0.495960431690139,0.25242993198127156,0.26256343545708316,0.09244118304721774,0.3087977446119463,0.8575501217389561
0.51531002003968,0.277137332542847,0.2830393839792915,0.09929535567428462,0.3047572054661793,0.8561292983264411
0.5343281407290237,0.3021956613293173,0.3035240926201217,0.1070508393169692,0.3016827562995721,0.8540728795240933
0.5529368645828745,0.32765664397898064,0.3239754316298968,0.11583270238908253,0.29971573348854064,0.8512486113944605
0.5710590322969312,0.35353118301113345,0.34432817141762895,0.12570178265208323,0.2989338244619303,0.8475509355351132
0.5886217186704918,0.3797906283483856,0.3645006818520899,0.13665508277910693,0.29934793585974406,0.8429018937549186
0.6055602101177078,0.4063708324874213,0.3844040753362058,0.14863071691423807,0.30090333658550744,0.8372509057732498
0.6218221602947572,0.4331783401323998,0.4039527318430186,0.16151673285658574,0.30348479251382793,0.8305736267157265
0.6373715535659579,0.4600979684808708,0.42307500193298364,0.17516288342739655,0.30692514540986576,0.8228700864160905
0.6521920960977655,0.4870010155049111,0.4417228690522569,0.1893942655129114,0.3110165874984843,0.8141622937640255
0.6662896724041816,0.513753381544434,0.4598794610007197,0.20402568916139827,0.31552375386722115,0.8044914634965146
0.6796935523669047,0.5402229913039952,0.4775635161096998,0.21887567588294066,0.32019769938196313,0.7939149960526379
0.6924561091315377,0.5662860428786781,0.4948302068769394,0.23377910186537143,0.3247898410810152,0.7825033180327089
0.7046509082999584,0.5918317706325099,0.5117680711721972,0.24859768031785942,0.3290650225764445,0.7703366741745796
0.716369147357983,0.616765573170748,0.5284921648454363,0.26322769720008754,0.33281298209166593,0.7575019523982108
0.7277145528504805,0.6410105118442205,0.5451338966963978,0.2776046553270919,0.3358576667159707,0.7440896204770955
0.7387969713236602,0.664507317703637,0.5618283080099422,0.29170472362834987,0.33806401778352363,0.7301908540932448
0.7497250076057913,0.6872131475645848,0.5786997907372925,0.3055431140908068,0.33934204171894117,0.7158949385109203
0.7605981600000331,0.7090993984564393,0.5958473846321463,0.3191697049419972,0.3396481640157761,0.7012870267997908
0.7714989672267886,0.7301489232668004,0.6133308458316146,0.33266238510871204,0.33898402974273023,0.6864463337607678
0.7824857096982216,0.7503529909285263,0.6311586369535028,0.34611870605378625,0.33739305288467314,0.671444834552071
0.7935861943418929,0.7697083065007135,0.6492788584433861,0.35964649063501514,0.33495512234501185,0.6563465196140617
0.8047930977551833,0.7882143561249305,0.6675739354778581,0.37335406585390446,0.33177994084713236,0.641207233110103
0.8160612506950637,0.8058712761935622,0.685859611791288,0.38734076121883637,0.3279995034618253,0.6260750920494554
0.8273071248506301,0.8226783724872593,0.7038885020739749,0.4016882529739494,0.32376021699510144,0.6109914496942818
0.838410640188965,0.8386333404861459,0.7213581403211969,0.41645324408786866,0.31921512435239735,0.5959923324836057
0.8492192592195843,0.8537321686303321,0.7379231548178443,0.4316618588642054,0.3145166355089534,0.5811102474546017
0.859554185097953,0.8679696468791457,0.7532109218645664,0.44730600771708473,0.3098100863720397,0.5663762298133646
0.8692183447552265,0.8813403569566065,0.7668398175919362,0.4633418501229547,0.30522835665124043,0.5518219803113924
0.8780057257310161,0.8938399901504948,0.7784390141450233,0.4796903593767528,0.300887685677953,0.5374819312150555
0.8857115532353406,0.9054668240021213,0.787668662525182,0.49623987790516366,0.2968847378772004,0.5233950789642301
0.8921427464767422,0.9162231899532236,0.7942392739805023,0.5128504516848976,0.29329489283485877,0.5096064313640284
0.8971280818288867,0.9261167782178539,0.7979291547325186,0.5293596506428745,0.2901716724277142,0.4961679368400164
0.9005275135983731,0.9351616512423541,0.7985988601867784,0.5455895213156517,0.2875471712464249,0.48313879173990876
0.9022401573514149,0.9433788700229175,0.7962018058509864,0.5613542797668184,0.28543332673919136,0.4705850571690182
0.9022105206322509,0.9507966749662041,0.790790391120608,0.5764683368507557,0.28382385085270356,0.4585785573011085
0.9004326651292666,0.9574502016486988,0.7825172448682242,0.5907542533374205,0.2826966430888576,0.4471950741843951
0.8969520962084048,0.9633807487765523,0.7716314731957987,0.6040502472142898,0.28201651287206725,0.43651189736968204
0.8918652936832787,0.9686346483528263,0.758470064362024,0.6162169169357197,0.28173805384482425,0.42660482790078835
0.8853169157049852,0.9732618146004601,0.7434448689850747,0.6271428991946729,0.28180853136989736,0.41754477318960764
0.8774948204554281,0.9773140673137198,0.7270258116608884,0.6367492442567495,0.28217066488402126,0.40939410018446043
0.8686231534490805,0.9808433364547077,0.7097211914734984,0.6449923621398808,0.28276520732072663,0.40220293749321756
0.8589538379821683,0.9838998580671815,0.6920560840305098,0.651865465069709,0.2835332438414039,0.39600563155873997
0.848756879554482,0.9865304676146315,0.674549959543717,0.6573985020157513,0.28441815144466037,0.39081756677838614
0.8383099493919346,0.9887770867838767,0.6576946754897162,0.6616566464247359,0.2853671799237107,0.38663255413277003
0.8278877454257997,0.9906754850525814,0.6419339864420421,0.6647374557669866,0.28633263349816346,0.38342097728963864
0.8177516395809352,0.9922543794581246,0.6276456381804838,0.6667668691262304,0.2872726515128465,0.3811288594343465
0.8081401068492542,0.9935349165541276,0.6151269810329297,0.6678942454831741,0.2881516057797196,0.3796779787092762
0.799260393912279,0.9945305608462212,0.6045848538758075,0.6682866700598703,0.2889401508853743,0.3789671158937766
0.7912818234599843,0.99524739510834,0.5961302629326887,0.6681227693749069,0.28961498107814837,0.378874465940343
0.7843310463984323,0.9956848205734135,0.589778118331912,0.6675862784719903,0.29015836181502336,0.3792611867125406
0.7784894507564767,0.9958366293598254,0.5854520082922466,0.6668595976380683,0.29055751417057935,0.3799759957141752
0.7737928176826855,0.9956924075823018,0.5829936997063443,0.6661175626859563,0.29080393468203464,0.380860661247904
0.7702331873567588,0.9952392150906643,0.5821767703366494,0.6655216345274911,0.2908927308022422,0.3817561713516205
0.7677627681817449,0.9944634762427449,0.5827235186052578,0.6652146921753888,0.29082204254895666,0.38250930565619407
0.7662995995985741,0.9933530051361528,0.5843240794373936,0.6653165900106406,0.2905926045383074,0.38297928610939125
0.7657345711914268,0.9918990780713624,0.586656515946471,0.6659206161380617,0.2902074805618398,0.38304414677223175
0.7659393173081451,0.9900984558006916,0.5894065726669496,0.6670909642893503,0.2896719771603734,0.3826064451286281
0.7667744552664414,0.9879552488806409,0.5922857794532553,0.6688613067246669,0.28899371580792854,0.38159794174009976
0.7680976227333844,0.9854825122349266,0.595046694462361,0.6712345290500488,0.2881828182271148,0.37998290498944964
0.769770799846286,0.9827034513890149,0.5974942719155446,0.6741836585177241,0.2872521389246621,0.37775975508277887
0.7716664744404418,0.9796521246935513,0.5994926296696139,0.6776539837650192,0.2862174658737162,0.37496084647294065
0.7736723205739789,0.9763735353836535,0.6009668577268003,0.6815663247951974,0.2850976063775882,0.3716502980445716
0.7756942030476704,0.9729230266659973,0.6018999263392388,0.6858213665421813,0.28391428165085525,0.36791991058208734
0.7776574809380306,0.9693649239633385,0.6023251863167256,0.6903049176753702,0.2826917706049914,0.36388335313790354
0.7795067445431706,0.96577041198487,0.6023153616488967,0.6948938996291558,0.2814562696245971,0.3596689431351372
0.7812042633718983,0.9622146902195952,0.6019692683729584,0.6994628118099311,0.28023496852341184,0.3554114764785863
