x-axis (g),y-axis (g),z-axis (g),x-axis (deg/s),y-axis (deg/s),z-axis (deg/s)
0.15678104162686254,0.11599529074713047,0.12803263437705803,0.15252731509628195,0.617409113806561,0.6151429169812896
0.16597632223426548,0.12132439748870842,0.1193837872172955,0.14006644311873045,0.5993075679863192,0.6161024844938215
0.17538387326463448,0.1268584917711937,0.1112481445578287,0.1278623844790593,0.581496368298202,0.6170549517607774
0.18536200725352825,0.13296906666614364,0.10460922839896869,0.11622093558947598,0.5643199989834592,0.6180007053989498
0.1962248755055079,0.13998828376215922,0.10038109912182286,0.10541992215078,0.548104664264775,0.6189413212493995
0.20822695464619967,0.14819774697479787,0.09937958078336012,0.09570595887789372,0.5331459195488911,0.619876572327614
0.22155311403902442,0.15782220451120574,0.10230055103405834,0.08729437213847198,0.5196969338676973,0.6208011593159487
0.23631448750043502,0.1690279855563945,0.10970499964454844,0.08037182168773574,0.5079578791599366,0.6217014425792902
0.2525498298911936,0.18192554516060605,0.12201009134779418,0.07510090659883008,0.49806699338186,0.622552468361894
0.2702315729449613,0.19657516181128337,0.13948517505390215,0.0716258731012189,0.49009387848304126,0.6233155738640792
0.28927544916339387,0.21299463696603302,0.16225157540999882,0.07007847473002543,0.4840355571679513,0.6239368262293891
0.3095523534026124,0.23116779486043548,0.19028507306938652,0.07058307169104623,0.479815717901354,0.6243465006714056
0.3309010654202531,0.25105266617708283,0.2234201951900276,0.07326018832996598,0.4772874276317264,0.6244597360986379
0.35314055230533503,0.2725884373561666,0.26135575083291385,0.07822795672868957,0.476239395324729,0.6241784269582655
0.3760807826477679,0.29570052447692574,0.3036614019902726,0.08560113537968829,0.47640564162983157,0.6233943228571702
0.3995312803477478,0.3203034474224025,0.3497854035639114,0.09548767560416171,0.47747818994201424,0.6219932186872419
0.42330698624769825,0.3463014969917203,0.39906392362011855,0.10798308556358599,0.47912216296191645,0.6198600336046911
0.44723134123987546,0.37358746966988327,0.45073252830654603,0.12316308569660613,0.4809924678921132,0.616884503319028
0.471136819815446,0.4020399646700828,0.5039404583125383,0.1410752385148355,0.4827511021031805,0.6129671522973131
0.4948633995366679,0.43151987836344663,0.5577682270567493,0.16173035481632764,0.4840840253703183,0.6080251754008531
0.518255629692082,0.46186678576686374,0.6112488436337085,0.1850945198155055,0.484716535497432,0.6019978456603245
0.5411590511559937,0.49289587102793553,0.6633926306437226,0.21108254617364,0.4844261560426877,0.5948510783580538
0.5634167185967424,0.5243959710830802,0.7132152060294371,0.2395535530149431,0.4830521958610928,0.5865808215553869
0.5848664938507737,0.5561291473585703,0.7597677753156736,0.2703092030273518,0.4805013612746514,0.5772150080050092
0.6053396309608983,0.5878320214657682,0.802168486196601,0.3030949202293205,0.47674907739240796,0.5668138894318051
0.6246609797586493,0.6192189248256088,0.8396332794780501,0.33760417808153703,0.47183648456421023,0.5554686760834985
0.6426509195299798,0.6499867395393256,0.8715044702781974,0.3734857113601899,0.465863394539793,0.5432985153980672
0.6591289212596741,0.6798211650018863,0.897275241069628,0.41035328485452977,0.45897779231551683,0.5304459557348165
0.6739184483230612,0.7084040426664477,0.9166083389398441,0.4477974645681607,0.45136272824241874,0.5170711460434814
0.6868527594635021,0.735421314912262,0.929347542303432,0.4853986963608642,0.44322163813913323,0.5033451119810911
0.6977810871261947,0.7605711822231488,0.9355208796980142,0.5227409122768427,0.4347632395117201,0.48944251610421896
0.7065746348925983,0.7835720499949593,0.9353351128424158,0.5594248608038774,0.4261871690803356,0.47553434868464095
0.7131318692800315,0.8041699128554449,0.9291615936551494,0.5950803937133391,0.4176714482361174,0.46178100283219664
0.7173826665793314,0.8221448990958512,0.9175142187520583,0.629377033955344,0.40936269475989917,0.44832616184875085
0.7192910024352308,0.8373167791527302,0.9010207809135509,0.6620322871881161,0.40136975500485145,0.43529186961831284
0.7188560245342082,0.8495493197706386,0.8803895037522014,0.6928173314682167,0.3937611313760308,0.4227750704784437
0.716111509234669,0.8587534316297928,0.8563728996453923,0.7215599107679636,0.3865662508381192,0.41084579980941444
0.7111238536251339,0.8648891079837578,0.8297312800949513,0.7481444526933275,0.3797802895215287,0.39954708866444255
0.7039888797693185,0.8679661835787507,0.8011982549844784,0.7725096137469404,0.37337196465811595,0.3888965243526302
0.694827815845895,0.8680439581190965,0.7714503819089277,0.7946436129827482,0.36729345419979176,0.3788892934518125
0.6837828622234138,0.8652297304357761,0.74108278413794,0.8145778358591521,0.3614914282156279,0.36950243320122267
0.671012747054878,0.8596762834492153,0.7105920755720974,0.8323792669488524,0.35591808986162715,0.36069993922578153
0.6566886285652392,0.8515783517511036,0.6803673544417299,0.8481423393625561,0.35054113507384177,0.3524383277533601
0.6409906170596105,0.8411680986955206,0.6506894031523943,0.8619807709214877,0.3453516485353572,0.3446722321851618
0.6241050794114325,0.8287096329031183,0.6217376112428495,0.8740198968505298,0.3403691499756828,0.3373596277188174
0.6062227651734119,0.8144926082559591,0.5936035718995075,0.8843899140156131,0.3356432728956215,0.33046632172621526
0.5875376701230347,0.7988249783343244,0.5663098339941506,0.893220332968681,0.3312518744464297,0.32396941737490426
0.5682464432392653,0.782025015615199,0.5398319559209772,0.9006358032281351,0.3272957129955203,0.31785954720113113
0.5485480585104628,0.7644127557483901,0.5141218274764079,0.9067533465705109,0.32389015916999714,0.3121417742523432
0.528643422837702,0.7463010845090617,0.4891302113430139,0.9116809140987661,0.32115469734661145,0.3068351625705119
0.5087345816898935,0.7279867450252521,0.46482660280488797,0.9155170851449022,0.31920120077841607,0.3019711177594242
0.4890232174948176,0.7097416000739479,0.4412147992098506,0.9183516567343373,0.31812210293625026,0.29759068447147785
0.4697082105089531,0.6918045324532727,0.4183429830105029,0.9202668353558832,0.3179796253110949,0.2937410545224798
0.4509821426681475,0.6743743991703,0.39630761957632354,0.9213387387920162,0.3187971514816805,0.2904715825175812
0.4330267625555887,0.6576044659936705,0.3752510138131394,0.9216389421858447,0.32055366169541094,0.2878296230685642
0.41600758180054315,0.6415987318945843,0.3553529161205117,0.9212358539152439,0.3231818741014359,0.28585649497025534
0.40006792514894374,0.6264105032164534,0.33681707703512653,0.9201957755367027,0.3265703996663918,0.2845838454422768
0.3853228918796418,0.6120434919943682,0.31985408275890725,0.9185835769445981,0.3305698368987102,0.2840306361300567
0.37185378872364616,0.5984555910647918,0.30466212761387557,0.9164629933448688,0.33500234457965394,0.28420090799596043
0.3597036487584493,0.5855653229835021,0.2914075683980695,0.9138966154897449,0.33967387336108834,0.2850824115312355
0.3488744444873949,0.5732607765500997,0.2802071424494678,0.9109456910580807,0.3443879475486208,0.28664611921272415
0.33932652848991784,0.5614106442329893,0.2711136087727705,0.9076698774828307,0.3489596998842461,0.2888465757090474
0.3309806895966863,0.5498767703626578,0.26410629365789123,0.9041270821578226,0.3532288003254438,0.29162299371741446
0.3237230016549442,0.5385274315339298,0.2590876042742816,0.9003734953068859,0.3570699993723157,0.29490097332770077
0.3174123787596593,0.5272504176600622,0.2558860430664745,0.8964638678020371,0.36040022835614416,0.2985947119047306
0.3118904566554361,0.5159648858656616,0.2542656511692045,0.8924520180753401,0.36318154863599567,0.3026095783615052
0.3069931236611215,0.5046309399272595,0.25394117955275886,0.8883914789586999,0.3654196881573098,0.30684494629583003
0.3025627605183519,0.4932559614741743,0.2545976893309321,0.8843361287152214,0.36715840173623576,0.31119720822906793
0.2984600545816904,0.4818968953004799,0.25591277936461904,0.8803406033324581,0.36847038346257527,0.3155629197805955
0.29457416634482914,0.4706579704512271,0.25757929138825714,0.8764602711508842,0.36944588211898066,0.3198420390455808
