x-axis (g),y-axis (g),z-axis (g),x-axis (deg/s),y-axis (deg/s),z-axis (deg/s)
0.1517527578882617,0.11988451568685587,0.17229323928284188,0.1778506439531484,0.5960174550715728,0.6205311527521558
0.16736034269600036,0.12800858194482556,0.1628581665892296,0.17027093122307538,0.5944947340332793,0.618626992123309
0.18313393927634464,0.13641455107157022,0.15358458909500303,0.16289102556489157,0.5933254787166258,0.6166057099786442
0.19926459273405506,0.14546863558680137,0.14494789177931405,0.15584752624705173,0.5927058067273583,0.6143560452682609
0.2158943936540691,0.15548414449511322,0.13740431174517787,0.1492523822841057,0.5927801109216738,0.6117855862751556
0.23310138479905687,0.16670465738807475,0.13139011547283433,0.14319099092938806,0.5936193828299865,0.6088278566802207
0.2508917224339115,0.1792938807867493,0.1273225956002218,0.1377234815879002,0.595205897213453,0.6054471681651665
0.26919968770580616,0.19333259934419278,0.1256014101218479,0.13288909872340618,0.5974259474256016,0.6016408703439255
0.2878952596276215,0.20882246728814632,0.12660880978998149,0.12871325792512703,0.6000715141802683,0.5974388587521456
0.30679814684690093,0.2256957833662478,0.1307074981211306,0.12521655000346957,0.6028508671358423,0.5929004352365395
0.32569652383685027,0.24382991321035377,0.13823521687351067,0.12242474282427017,0.6054072333953691,0.5881088312798447
0.3443682939087261,0.26306470465664367,0.14949560846924595,0.12037870309581462,0.6073439068520342,0.583163886102627
0.3626025394044302,0.2832211012219709,0.1647454265508866,0.11914314192543565,0.6082535891571662,0.5781735049289034
0.3802189187233345,0.30411919375643276,0.18417869334146714,0.11881317802383787,0.6077493970905307,0.5732446007025608
0.3970831014372665,0.32559414054565566,0.20790888510208852,0.11951789950968486,0.6054948669956922,0.5684742418493094
0.41311684473861043,0.3475086995917364,0.235950617443153,0.12142036923014933,0.6012304331717707,0.563941691038202
0.4283019399903414,0.3697615135305251,0.2682025623586691,0.12471383320132695,0.5947942277434914,0.5597019309828611
0.4426779239611143,0.39229072475289134,0.3044334323736991,0.12961422782065163,0.5861355983911722,0.5557811421383245
0.4563340840574968,0.415072934161414,0.34427280154599915,0.1363494091225535,0.5753204069382123,0.5521744352177348
0.4693968281605879,0.43811791469610395,0.3872082999468963,0.14514581883646208,0.5625278883479994,0.5488459619353301
0.48201388970421594,0.4614598206223895,0.4325903332068098,0.15621353384461606,0.5480395482035504,0.5457313441499424
0.49433706755002915,0.48514587470885284,0.47964496975138404,0.16973080007825458,0.5322211957649282,0.542742188276203
0.5065052474925777,0.5092236563963394,0.5274950437597572,0.1858292179856012,0.5154996997249203,0.5397723009434038
0.518629325964827,0.5337281527232709,0.5751888873916299,0.20458072076504194,0.4983363810788578,0.5367051039305841
0.530780381023047,0.5586696764107667,0.6217354813606564,0.22598737207420833,0.48119910598584603,0.5334216692316053
0.5429820477755295,0.5840236154684182,0.6661442489430036,0.2499748170028416,0.4645351125788826,0.5298087633631308
0.5552075998573579,0.6097227745968837,0.707467262302813,0.2763899644567272,0.4487464165820665,0.5257663049196223
0.5673817632578229,0.6356528224915902,0.7448413220923157,0.3050031807582919,0.43416932109773126,0.5212136986222083
0.579386840156528,0.6616510941134482,0.7775272420256651,0.33551495597249226,0.4210591443543495,0.5160946071846075
0.5910723391290585,0.6875087356053566,0.8049437370399067,0.3675666899880153,0.4095808180042255,0.5103798509552938
0.6022670258899525,0.712975941859083,0.8266935794386292,0.4007549577948053,0.3998055400152375,0.5040682741421577
0.6127921461699981,0.73776983896134,0.8425801390517155,0.43464837341847706,0.3917132286793344,0.49718557388378887
0.6224745375403352,0.7615844171832485,0.8526130325419564,0.46880599650370164,0.38520014926544616,0.48978124254479954
0.6311584358160494,0.784101830748875,0.8570023313852903,0.5027961264919786,0.3800907950623418,0.4819239129684294
0.6387149786516477,0.8050043488483385,0.8561415647009869,0.5362143128220704,0.37615291294060654,0.4736955109767037
0.6450486893773001,0.8239862638311433,0.8505805420553559,0.568699475523223,0.3731144733980404,0.4651847011966301
0.6501005567823821,0.8407651287435614,0.8409897505139154,0.5999471728137054,0.3706813908725589,0.456480155934112
0.6538476768491237,0.8550917960030101,0.8281186905163523,0.6297192591702414,0.3685548892631173,0.4476641798467925
0.6562997558027753,0.866758849176153,0.8127509556931221,0.6578494325595441,0.366447562268735,0.4388071861131403
0.6574930589455636,0.8756071476097365,0.7956590943606703,0.6842444536687975,0.3640973775471502,0.42996344605940123
0.6574826013057099,0.881530327357363,0.7775622932824503,0.7088811119431737,0.3612790962375054,0.4211684297360789
0.6563334970955887,0.8844772120852232,0.7590896941133207,0.7317992919758518,0.3578128047107751,0.4124379277351023
0.654112407791875,0.8844521781498547,0.740751705775221,0.7530917399083683,0.3535694659355445,0.4037690040583801
0.6508799556762255,0.881513586003588,0.7229210461429122,0.7728913267096926,0.3484735799447399,0.3951426863064699
0.6466848125803737,0.8757704360916683,0.7058244838275226,0.7913567414826089,0.34250318749441144,0.38652816314116445
0.6415599519278282,0.8673774350260827,0.6895454171759785,0.8086576162446092,0.33568755373212417,0.37788813957726164
0.6355212912827503,0.8565286728303944,0.6740365910823177,0.8249600821492863,0.32810292950145586,0.36918490666553466
0.6285686809928689,0.843450121430319,0.6591414819180823,0.8404136891281431,0.3198668104260063,0.36038662032548174
0.6206889409684571,0.8283911753812775,0.6446222409033445,0.855140494201045,0.3111311045125724,0.35147325916463884
0.6118604385327792,0.8116154740928987,0.6301916300853907,0.8692269495570022,0.3020745857787242,0.34244174541507044
0.6020585569872551,0.7933912744799919,0.6155461510480992,0.8827190137256031,0.2928949631327464,0.3333097664608241
0.5912613414076625,0.7739816851191474,0.6003975740862598,0.8956206827682384,0.283800838979961,0.3241179241308831
0.5794546311474701,0.753635125333415,0.5845003236903,0.9078959085257471,0.2750037783909161,0.3149299598586187
0.5666360944034399,0.7325764293868837,0.567672642678982,0.9194736517459038,0.26671066321042286,0.30583094858001625
0.5528177568772934,0.7109990681638404,0.5498101005929967,0.9302556218486023,0.2591164704063169,0.2969235135249631
0.5380268439062993,0.6890589968559354,0.5308907740955189,0.9401260924073472,0.2523975924138614,0.288322276965596
0.5223050069578642,0.6668706444287412,0.5109722384698487,0.9489630598902472,0.24670580934465594,0.2801469166095181
0.5057062506137768,0.6445055262206435,0.49018129423368906,0.9566499380660194,0.24216302688623878,0.27251433135756253
0.48829408350562203,0.6219938740043398,0.4686980362705693,0.9630869546307044,0.2388569059875853,0.2655305216445794
0.47013855660030857,0.5993295309814862,0.44673638679677447,0.9682014407947654,0.23683752605348257,0.25928284783655325
0.4513139007402294,0.5764781508098459,0.42452350372193054,0.9719562776027518,0.2361152363874412,0.25383333663270374
0.43189741710641194,0.5533884753944123,0.4022805077348394,0.9743558816559453,0.23665985456624483,0.24921365473370535
0.4119701055376087,0.5300061596965419,0.38020673388181414,0.9754492728980111,0.23840135900289872,0.24542225989249528
0.3916192462620702,0.5062892859873701,0.35846922236526735,0.9753299615059365,0.24123219080785333,0.24242407546116237
0.37094280500139903,0.4822243960153824,0.33719846214349763,0.97413261084002,0.24501122364100258,0.24015282473685048
0.3500551480641221,0.4578416056478266,0.31649055896005307,0.9720266675473614,0.24956937865206297,0.23851592048262843
0.32909318327230325,0.4332271950740587,0.29641510778502533,0.9692073843608053,0.25471675727773996,0.23740155297634183
0.30822174240196576,0.40853203123714243,0.277027214450693,0.9658848793958092,0.2602510438273616,0.23668738123715197
0.28763685103655645,0.3839743154318143,0.2583814442381376,0.9622720592162112,0.2659668024797177,0.2362500338442269
0.2675655460513924,0.3598354844748894,0.2405450816764282,0.9585723619470051,0.27166517288651204,0.2359744954117773
