x-axis (g),y-axis (g),z-axis (g),x-axis (deg/s),y-axis (deg/s),z-axis (deg/s)
0.7155599994223389,0.8405155230716309,0.5094223502147788,0.3726922756594726,0.3542185680097754,0.5738654065033844
0.7141317352714055,0.8525741248222056,0.5221360155793198,0.3915548756997063,0.34993198875326414,0.5682054908129083
0.712717894119851,0.8644706720559431,0.5342754417913302,0.41032665831786685,0.34575474303525683,0.562570746039909
0.7113066828426671,0.8760804337725026,0.5451103549110304,0.42891886270843854,0.3418058270309223,0.5569822961496951
0.7098870933418107,0.887290304090706,0.5539780518812145,0.44723550487824115,0.3381928227136048,0.5514629764120369
0.7084488525264164,0.8980029482553751,0.5603176965874538,0.46517046605849377,0.33500708130462165,0.5460388060271527
0.706982095140402,0.9081398836073777,0.5636980647940187,0.4826062165587257,0.3323200130536096,0.5407401205104472
0.7054768646205352,0.9176432786305513,0.5638373928273359,0.49941448253590137,0.3301806607720382,0.5356022185983458
0.7039225862711812,0.9264763766473209,0.5606145607036301,0.51545894956658,0.3286146323412656,0.5306654182697723
0.7023076739954309,0.934622574994963,0.5540714183964563,0.5305998792513685,0.3276243647777104,0.5259744639520347
0.7006194230191356,0.942083301488934,0.5444066015357558,0.5447003162699281,0.3271905981381934,0.5215772783479362
0.6988443071671017,0.9488749173236213,0.5319616474930371,0.5576334022935563,0.3272748591140264,0.5175231038819955
0.6969687448412438,0.9550249332742669,0.5172005928829538,0.5692902034193846,0.32782269726862906,0.513860127088745
0.6949803303517831,0.9605678523923463,0.5006844976900668,0.579587406582457,0.32876738496088653,0.5106327213551496
0.6928694557655948,0.9655409492260533,0.48304249717964565,0.5884742487907103,0.3300337861102063,0.5078784768098137
0.6906311823999182,0.9699802675953837,0.4649410353481712,0.5959381064578921,0.3315421178069388,0.505625208931957
0.688267169054429,0.9739170724796549,0.4470528931334109,0.602008281444675,0.33321136897780956,0.503888148343473
0.6857874326914906,0.9773749337166922,0.43002750475911367,0.6067576632656122,0.33496219683569334,0.5026675125635589
0.6832117105949603,0.9803675568694156,0.41446387234913784,0.6103021090821379,0.3367191884929017,0.501946646164047
0.680570212166452,0.9828974158131136,0.400887159069417,0.6127975500141815,0.33841244517079205,0.5016908892753656
0.6779035916229028,0.9849551870229701,0.38972978116432816,0.6144349903249193,0.3399785132389844,0.5018472968557691
0.6752620355127819,0.9865199403226276,0.38131754507454424,0.6154337035056423,0.3413607438576018,0.502345284224932
0.6727034347496836,0.9875600065508152,0.3758611016314241,0.6160330372895342,0.34250920642330257,0.503098220309733
0.6702906921392496,0.9880344193812787,0.37345272754654807,0.6164833124015243,0.3433803070293045,0.5040059316078511
0.6680882951655632,0.9878948154625793,0.3740682053860805,0.6170363349311696,0.3439362702346735,0.5049580202511227
0.6661583526151845,0.9870876724676195,0.377573365055082,0.6179360402207581,0.344144630983096,0.5058378423046714
0.6645563461871365,0.9855567665379672,0.3837346784160345,0.61940975040237,0.34397785571688033,0.5065269413333519
0.6633268800889501,0.9832457369316645,0.39223316780692896,0.6216604636146114,0.34341317138089017,0.5069096910782543
0.6624997204012154,0.9801006546299766,0.40268080073616125,0.6248605073373577,0.3424326330924172,0.5068778733598126
0.6620864015771055,0.9760725018290736,0.41463849701266936,0.6291467887972066,0.3410234114738227,0.5063349061083733
0.6620776417856138,0.9711194797114407,0.427634869625216,0.6346177696986746,0.339178234870896,0.5051994439783115
0.6624417556109459,0.9652090721847922,0.44118485415495523,0.6413321878263841,0.3368958853512179,0.5034081015183736
0.6631241868461676,0.9583198032779778,0.4548074496687716,0.649309450617773,0.3341816249495355,0.5009170962215724
0.6640482114104189,0.9504426357017495,0.46804189227992793,0.658531540677079,0.3310474230940419,0.4977026743350154
0.665116786513862,0.9415819679017507,0.48046170549451456,0.6689462040655866,0.3275118686847227,0.49376026285872276
0.6662154523910861,0.9317561968839693,0.491686213041037,0.6804711413418704,0.3235996800757101,0.48910238193655536
0.6672161316560503,0.9209978241729365,0.501389253484389,0.6929988897223307,0.3193407704157728,0.483755446701558
0.6679816218957675,0.9093530922974061,0.5093049944470749,0.7064020722525295,0.3147688798212996,0.47775567939593544
0.6683705415649469,0.8968811488828807,0.5152309002200314,0.7205386955026443,0.30991984372184617,0.4711444334833951
0.6682424684209298,0.8836527444214178,0.519028052248549,0.7352571993628144,0.3048296216694646,0.4639632937756835
0.6674630034777893,0.869748477834236,0.5206191497426808,0.7504009989375325,0.2995322560941303,0.45624935328697475
0.6659085008294091,0.8552566110246035,0.5199846201283412,0.7658123070086172,0.2940579597437342,0.4480310730310346
0.6634702232909592,0.8402704800801213,0.5171573396077799,0.781335083621485,0.28843153909577685,0.43932510185000806
0.6600577140305836,0.8248855374007564,0.5122164973765093,0.7968170245456995,0.28267134612435,0.43013436891860474
0.6556012136062832,0.8091960670039051,0.5052811295431575,0.8121105700751727,0.2767889121759927,0.4204476642884567
0.650052998609057,0.7932916261121538,0.49650379949909884,0.8270729871189745,0.2707893577467761,0.41024079857525764
0.643387571115286,0.7772532814928639,0.4860648124380476,0.8415656478046922,0.26467259564297146,0.39947929075049393
0.6356006861346641,0.7611497303214584,0.4741672285002333,0.8554526935760813,0.2584352595479416,0.38812238488727
0.6267072659406033,0.7450334234375059,0.46103279088457033,0.8685993313829848,0.25207320418966656,0.37612805653481324
0.6167383141339486,0.7289368436333715,0.4468987250382477,0.8808700541178659,0.24558434662662662,0.3634585519424719
0.6057370067019237,0.7128691315910735,0.4320152084038735,0.8921271068991616,0.2389715599307111,0.3500859228883905
0.5937541998531879,0.6968132941712956,0.41664317467630924,0.9022295302071045,0.23224529878883715,0.33599698858469895
0.5808436520426244,0.6807242691237091,0.40105201979436367,0.9110330967861011,0.225425637129693,0.3211971825661614
0.5670573066125542,0.6645281504517413,0.3855167349052274,0.918391419082667,0.21854343369860452,0.30571283005055033
0.5524410173805886,0.6481228918710771,0.37031401629356914,0.9241584365950404,0.21164041192627783,0.28959154716959956
0.5370311171304344,0.6313807936647448,0.35571699967434656,0.9281923984871713,0.20476804107715035,0.27290064800513697
0.5208522226769661,0.6141530326743744,0.3419884342862175,0.9303613389746918,0.19798522845852598,0.2557236719461203
0.503916634271517,0.596276409554555,0.3293723397089647,0.9305499065791798,0.19135496613379974,0.23815537983901217
0.4862256164125113,0.5775823579015794,0.31808445461462354,0.9286672611490794,0.18494020639418052,0.22029578559510016
0.4677727378410503,0.5579080866914687,0.30830206248877956,0.9246556047218907,0.17879935318320841,0.20224396116273022
0.4485492993053982,0.5371095161489235,0.30015402902398597,0.9184987760030727,0.17298183682228097,0.1840924489784302
0.4285516909437233,0.5150754293865781,0.2937120707305392,0.9102302269491481,0.16752427355877064,0.16592311379090371
0.4077903041791964,0.4917420160651168,0.28898435733653366,0.899939627581612,0.16244768989075004,0.14780515020711602
0.38629938917517964,0.46710675425283354,0.2859125018272031,0.8877773249365375,0.1577562096567451,0.12979573058366642
0.36414701812383604,0.44124039193765174,0.28437279423041906,0.8739559251724156,0.1534374614051371,0.11194344201578063
0.3414441134323268,0.41429568254615234,0.28418218893586417,0.8587483820928915,0.14946477402004688,0.09429424972697581
0.31835136014253157,0.3865115316240376,0.2851090822659951,0.842482163626711,0.14580100731988205,0.07689928214075699
0.2950827786582466,0.3582113530084786,0.28688836177828064,0.82552932692606,0.14240363604650186,0.05982331947462
0.27190482134286276,0.3297947326266182,0.28923963694738214,0.8082926522560471,0.13923050069556234,0.04315255125048607
0.24913010310624292,0.3017219636961185,0.2918870534421883,0.7911883474109006,0.1362454901067378,0.027000018596533278
