x-axis (g),y-axis (g),z-axis (g),x-axis (deg/s),y-axis (deg/s),z-axis (deg/s)
0.7097363158641178,0.3740928999452677,0.30587787087008034,0.13578823724410646,0.3103788223061591,0.726533189874558
0.7244662156252824,0.39873728880400033,0.32470246149969245,0.15184167248120928,0.3109207615151253,0.7202198294548096
0.738865600680909,0.4232616313647882,0.3431787833670058,0.16778675510828175,0.3115138145385586,0.7137633853392497
0.7526041403678845,0.44768671510319286,0.36106772349796834,0.183545688198163,0.3121839354952855,0.7069802627122653
0.7653838218222074,0.47202429686864433,0.37815782860837627,0.19903889926340626,0.3129489085378757,0.6997135027740443
0.7769556826656543,0.49627392266226505,0.3942824517234342,0.21418718908986378,0.3138150613168085,0.6918438977497015
0.7871333944168536,0.5204215218942284,0.4093345639435894,0.22891474632314415,0.31477502342383795,0.6832980002699256
0.7958028332802833,0.5444396194288887,0.4232778818711035,0.24315282559195472,0.315806782218111,0.6740525407913646
0.8029271195192595,0.5682888707466355,0.4361532574521484,0.2568438093387317,0.31687415489894827,0.6641350579514949
0.8085469609164171,0.591920535323713,0.44807964896500163,0.26994532057927834,0.3179286558303003,0.6536208393762015
0.812776466209563,0.6152794652236424,0.4592494044733262,0.2824340297238425,0.3189126063058105,0.6426265407249887
0.815794876625147,0.6383071977790397,0.4699180091763539,0.2943088046388305,0.3197632218219072,0.631301078796655
0.8178348834654086,0.6609447955206912,0.48038884662306824,0.30559288793987416,0.320417327950097,0.6198145655852008
0.8191683518667533,0.6831351617085961,0.4909938765121745,0.3163348455481565,0.32081630524785365,0.6083461552567838
0.8200903571164728,0.7048246624507924,0.5020714196719195,0.32660811067914625,0.32091084839776784,0.5970717118647181
0.820902466831773,0.7259639928036105,0.5139424496067375,0.336509041490522,0.320665144189468,0.5861521743397393
0.8218961789381747,0.7465083222100362,0.5268869100876056,0.34615351187311827,0.32006012388744454,0.575723403618048
0.8233373614684842,0.7664168345759501,0.5411216043234848,0.355672156477092,0.3190955227483525,0.5658881551032318
0.8254524448145701,0.7856518340109536,0.5567811321380123,0.3652044863935486,0.31779057615028833,0.5567106410128244
0.8284169978915228,0.8041776161904932,0.5739031903892751,0.37489217483082826,0.3161832900419918,0.5482139460664978
0.8323471828500046,0.8219593082452312,0.5924193061358594,0.38487187725934235,0.3143283346904488,0.5403803514241242
0.837294433346741,0.8389618606793466,0.6121517538933603,0.3952679934600949,0.3122937164586382,0.5331544202647012
0.8432435430760604,0.855149338663938,0.6328170344834946,0.4061857965191265,0.31015647460571777,0.5264485170403458
0.8501141883279689,0.8704846137665637,0.6540358845213196,0.41770534429921025,0.30799772203358095,0.5201502823062916
0.8577657453410656,0.8849295074572014,0.6753493671917892,0.4298765521223098,0.3058973953216176,0.5141314745650346
0.8660051056359259,0.8984453905143724,0.6962401937131207,0.44271574286000176,0.3039290971645299,0.5082575252212286
0.8745970468147308,0.9109942023072225,0.7161580685710605,0.4562039056566644,0.30215540262524154,0.5023971347764163
0.8832765897269408,0.9225398236745255,0.7345475667051282,0.4702867920806768,0.3006239609615969,0.4964312668368123
0.8917626728999282,0.9330497177525188,0.750876860228526,0.48487686505563826,0.2993646609126453,0.4902609673540741
0.8997724086960104,0.942496743942983,0.764665533075364,0.49985699902097946,0.29838804482385123,0.48381354306158225
0.9070351584399773,0.9508610492822981,0.775509763604899,0.5150857175884384,0.2976850627717714,0.4770467664174233
0.9133056793050334,0.958131945997694,0.783103318011791,0.5304036557112949,0.29722815953721443,0.46995092410123895
0.9183756548405103,0.9643096910153228,0.7872530720991083,0.5456408546640733,0.29697359250400285,0.46254868104266295
0.9220830213368523,0.9694070899270865,0.7878881469055238,0.5606244462673773,0.2968647943135485,0.4548928809243871
0.9243186382401489,0.9734508525055058,0.7850621780201331,0.5751862622445917,0.29683652615951683,0.44706253677745916
0.9250300141489741,0.9764826284230006,0.7789487062457513,0.5891699174832368,0.29681952012118784,0.43915737291454016
0.9242219798602856,0.9785596507203178,0.7698301422924719,0.6024369617766887,0.29674528423421653,0.43129135545476044
0.9219543843411896,0.9797549122419787,0.7580811838904364,0.6148717701112328,0.29655074255594926,0.4235856891286635
0.918337065793268,0.9801567990670462,0.7441479166525123,0.6263849409575709,0.29618240307758964,0.4161617618120866
0.9135225061184433,0.979868107777183,0.7285240828581517,0.6369150873943614,0.29559978634422474,0.4091344870771608
0.9076967025943586,0.9790043831366525,0.7117261363863452,0.6464290277707924,0.294777903410964,0.4026064333526999
0.9010688772715542,0.9776915318825209,0.6942687090168568,0.654920500794348,0.2937086389881684,0.3966630426444
0.8938606873073209,0.9760626984019755,0.676641996133846,0.6624076343383817,0.292400969715527,0.3913691403719563
0.8862955962427671,0.9742544293848193,0.6592923422589435,0.6689294788869828,0.29088002384816875,0.38676682981721416
0.8785890185941573,0.9724022058264947,0.6426069920648873,0.6745419682696665,0.2891850628292814,0.382874759135402
0.8709397627884621,0.9706354791484656,0.6269036010213764,0.6793136877122266,0.2873665331894218,0.37968865438375
0.8635231779987833,0.969072409313003,0.6124247062167287,0.6833218108993103,0.285482395309855,0.3771829357137615
0.8564862686615569,0.9678145610268105,0.5993369775316482,0.6866485157228286,0.28359398068329167,0.37531318093469634
0.8499448877210346,0.966941863071604,0.5877347348096127,0.6893781079666339,0.2817616588667338,0.3740191738851339
0.843982967905971,0.9665081689121028,0.5776469546418761,0.6915949815125837,0.2800406075215786,0.37322827465904557
0.8386536112292916,0.9665377679582295,0.5690468191051894,0.6933824330782185,0.2784769727809706,0.37285887237499177
0.8339817407685642,0.9670231813523075,0.561862786512047,0.6948222405676971,0.2771046826330721,0.37282372420753623
0.8299679338456357,0.9679245309385537,0.5559901887871276,0.6959948184999412,0.27594313407073895,0.37303304036312124
0.8265930073470332,0.9691706945979921,0.551302469601348,0.6969796922634448,0.2749959175350945,0.37339723598456925
0.823822916182074,0.9706623576407655,0.5476613521032969,0.6978559935238862,0.27425067283738414,0.37382932968383686
0.8216135533789144,0.9722769436270774,0.5449254399459124,0.6987026771964019,0.2736800933944887,0.37424701714513253
0.8199151004099638,0.9738752668518953,0.5429569831599721,0.6995981973451421,0.27324401512712876,0.37457448101213464
0.818675661581136,0.9753096032221373,0.5416267552910801,0.7006194523510786,0.27289244810213775,0.3747440112047112
0.8178440172757774,0.9764327385854923,0.5408171682904577,0.7018399117480304,0.27256933847247844,0.374697501704843
0.8173714370382592,0.9771074367944783,0.5404238816849302,0.7033269577255259,0.27221679080871525,0.37438786245166733
0.8172125944542425,0.9772156867110112,0.5403562353087975,0.7051386002220302,0.27177944128178516,0.37378034291456824
0.8173257121168968,0.9766670493008024,0.540536851485291,0.7073198411576476,0.27120865416381773,0.37285371425494307
0.8176721291785414,0.975405441526222,0.5409007217111224,0.7098990561385852,0.27046622027946565,0.3716012085185695
0.8182155211979393,0.9734137676009349,0.5413940291150516,0.7128848180413773,0.2695272672760638,0.37003107542190583
0.8189210103154433,0.9707159400936752,0.5419728788902305,0.7162635966096653,0.2683821469497194,0.36816659874996516
0.8197543843840899,0.9673760175423716,0.5426020323066788,0.719998726479993,0.26703714143554497,0.36604542189180544
0.8206816005148417,0.9634944099852981,0.5432536805777646,0.7240309433224571,0.2655139229039419,0.36371806901978
0.8216686877769679,0.9592013518639836,0.5439062619361151,0.7282806504372764,0.26384780369828265,0.36124561397555816
0.8226820932478695,0.9546480911392163,0.5445433205647037,0.7326519083975264,0.26208491727543504,0.3586965373224514
0.823689443567294,0.9499964691257361,0.5451524235972451,0.737037955322336,0.26027856557538775,0.35614291283648786
