x-axis (g),y-axis (g),z-axis (g),x-axis (deg/s),y-axis (deg/s),z-axis (deg/s)
0.23544592897071143,0.08443624380988944,0.1213121094258329,0.28366119638409165,0.5775380458122719,0.7266231968324361
0.2432292959355084,0.08294283006374946,0.10811867000589713,0.2575937113762165,0.5517576083289092,0.7355284821160871
0.2513544012802932,0.0818286064180377,0.09556803069997855,0.23207761108806535,0.5261042403197356,0.74431924534451
0.2602918215265134,0.08155102376586236,0.08445402476443802,0.20769122976527563,0.5006752468672305,0.7529455102525865
0.27044641029487715,0.08251253129683632,0.0754892675746045,0.18495856842763356,0.4755815380286689,0.7613677057366791
0.28213233377031777,0.08504128481251665,0.06926782850796882,0.16432825047583688,0.4509553839608786,0.7695557824850312
0.295556669308073,0.08937812602239403,0.06623661090451287,0.1461578156292215,0.42695496636871555,0.7774869001217133
0.3108123461655879,0.09567039328704091,0.06667686758185792,0.1307040506265196,0.40376513377367557,0.7851418021287864
0.327880250785426,0.10397254261163168,0.07069642613258677,0.11811955114299053,0.3815942661453371,0.7925001824076929
0.34663945310324257,0.11425301355328887,0.07823238169447076,0.1084552241014285,0.36066761908892153,0.7995355067722103
0.3668838279860742,0.12640631610938505,0.08906330928097733,0.10166801788516965,0.3412178910646533,0.8062098629552681
0.3883429081565481,0.14026897695037255,0.10282950401491485,0.09763284395394888,0.3234740021781503,0.812469459661839
0.41070463746166164,0.15563778701212516,0.11905940125793786,0.09615744791013119,0.30764917589782187,0.8182413732906396
0.4336377878303325,0.1722887427233179,0.13720016132752968,0.09699890834610682,0.2939293825233233,0.8234320529788031
0.45681212278020655,0.18999516129756283,0.15665040708351652,0.09988048221918794,0.28246305878767963,0.8279279504589139
0.4799148769067089,0.2085436562927012,0.17679324478632058,0.10450765969717678,0.27335279582931954,0.8315984559761037
0.5026627042782414,0.22774695436853276,0.19702793892570805,0.11058251508687869,0.26664942672244635,0.8343011135215631
0.5248088557234337,0.24745288434377904,0.21679890786710196,0.1178157145053492,0.2623486824825467,0.8358888773933061
0.5461459072042686,0.26754924042246536,0.23562102006876331,0.12593583472306807,0.26039035385708487,0.836218976414695
0.5665048219435921,0.2879645798740928,0.25310046837617334,0.13469593186319623,0.2606597181544529,0.8351627886431544
0.5857514470620477,0.3086653330955994,0.2689507602400611,0.14387754808141118,0.2629908781273749,0.8326160113572934
0.6037816992860012,0.3296498589186871,0.28300357296437273,0.153292539502722,0.2671716151082451,0.8285083477033033
0.6205166811141525,0.3509402559395955,0.2952143837281597,0.16278323708461345,0.272949373396074,0.822811927343237
0.6358988036992903,0.3725728352032998,0.3056629010980564,0.17222150868709607,0.2800380524009495,0.815547734036797
0.6498897053487099,0.3945881720413266,0.31454841106114456,0.18150727763871774,0.28812536810000855,0.8067894243491587
0.6624703853100482,0.4170215931461094,0.3221802224166572,0.1905669790299595,0.2968806356023607,0.7966640809265978
0.673643567601001,0.4398948321794259,0.3289634700044308,0.19935231342355042,0.3059629013970865,0.7853496402608326
0.6834379162801724,0.4632094199844822,0.335380623533681,0.2078395056442084,0.3150294025566975,0.7730689555081119
0.6919133853918187,0.48694218214254764,0.3419691638481917,0.21602911243295284,0.32374434187147555,0.7600806852108145
0.6991667400086605,0.5110430155122024,0.34929603037133694,0.22394626551640037,0.33178794018195823,0.7466674235645839
0.7053361550151812,0.5354349232993488,0.3579296095889912,0.23164110276930186,0.3388656640947469,0.7331216923351107
0.7106037987974977,0.5600161191675128,0.3684102147040363,0.23918904321895357,0.34471743847583497,0.7197305849194018
0.7151954399817811,0.5846638753743463,0.38122018558295845,0.2466905110774224,0.34912655245555324,0.7067599775167884
0.7193763642107808,0.6092396943851588,0.39675489658405966,0.25426971444992147,0.35192787128575936,0.6944392916473351
0.7234432308091088,0.6335953303322026,0.4152960768389828,0.2620721355601367,0.35301489062099295,0.6829478001948621
0.7277119032601619,0.6575791748433615,0.43698890258320716,0.2702604862310444,0.35234512919699396,0.6724034131948324
0.7325017139625857,0.6810425468598938,0.461824296448978,0.27900901580007464,0.3499433614087666,0.6628547610020991
0.7381170315199195,0.7038454815043251,0.48962775124666674,0.2884962162251763,0.34590224897143423,0.6542772164297231
0.7448273477315787,0.7258616908155006,0.5200557790883356,0.2988961363230398,0.3403800409947539,0.6465732728789337
0.7528473560210821,0.7469824606307482,0.5526007717899672,0.31036867846398414,0.3335951688663946,0.6395774347133334
0.7623186255722192,0.7671193446589191,0.5866046546307353,0.3230493916241224,0.3258177553765793,0.6330654943169671
0.7732944685927027,0.7862056112884498,0.6212812403561087,0.3370393810819217,0.317358271220366,0.626767784592146
0.7857294465933337,0.8041964846562298,0.6557466691011372,0.3523960165573261,0.3085537881830307,0.6203857243327949
0.7994746728751176,0.8210682942981117,0.6890567844744191,0.36912513009026504,0.29975247760749396,0.6136107351423796
0.814279662579282,0.8368167043226559,0.7202497828275818,0.38717534942728843,0.29129716653676524,0.6061444193265398
0.8298009898388786,0.8514542321150547,0.7483920204876756,0.4064351134963832,0.28350887609533876,0.5977187630718239
0.8456174737364002,0.8650072881069368,0.7726245107503976,0.4267327693743244,0.27667131513988497,0.5881150793533511
0.8612510765155192,0.8775129732619469,0.7922074235874004,0.44783996457312447,0.27101728009683024,0.5771804371496866
0.8761922062917327,0.8890158615132261,0.8065598447318468,0.46947833729949834,0.266717818233725,0.5648404393862766
0.8899277176368006,0.8995649727656913,0.8152921762332714,0.4913292856712577,0.26387485145849754,0.5511074078558482
0.9019696358795014,0.9092111107089926,0.8182288752310254,0.5130463809863838,0.2625177418566481,0.5360832999829717
0.9118825237357003,0.9180047009833455,0.8154197257139139,0.5342697962880186,0.26260402410742306,0.519957005358723
0.9193074777656225,0.9259942214384884,0.8071384992372689,0.5546419646593407,0.264024252709752,0.5029960306115727
0.9239809876543754,0.9332252693819139,0.79386865052352,0.5738235745289901,0.266610634542009,0.4855329570050918
0.925747297670358,0.9397402627674449,0.7762765649781672,0.5915089609938735,0.2701488607754635,0.46794742146409224
0.9245634453419203,0.945578725176052,0.7551737688212837,0.6074399678392195,0.2743923360779336,0.450644702979567
0.9204967720587826,0.9507780602752804,0.7314703624306863,0.6214174349878402,0.279077843755756,0.4340322677223301
0.9137153482100744,0.9553746825477161,0.7061226737648173,0.6333096061897625,0.2839415949637487,0.41849581530318913
0.9044723701633421,0.9594053400740902,0.6800786830811187,0.6430569429376838,0.2887345950924069,0.4043764571100653
0.8930861063252316,0.9629084448823501,0.6542250815274189,0.6506730599064005,0.29323632200723115,0.39195063280753945
0.8799173391776873,0.9659252196920289,0.6293398467288205,0.6562417485660788,0.2972658444711635,0.38141422718521156
0.8653464261034325,0.9685004793485422,0.6060539195163114,0.6599103109261504,0.30068970520047184,0.37287208898711044
0.8497520580687983,0.9706828926565197,0.5848249431696307,0.6618796659226065,0.3034261375913761,0.36633378739378025
0.8334935276570813,0.9725246162099559,0.5659251042643894,0.6623918989112497,0.3054454608198206,0.3617159908080027
0.8168978466863677,0.9740802548912132,0.5494439476244217,0.6617160845437455,0.30676678507226784,0.35885134561013476
0.8002524235405403,0.9754051804059886,0.5353057130333825,0.6601333131345863,0.3074514362724931,0.3575032063955294
0.7838032888124218,0.9765533234127708,0.523299372079931,0.6579218834167759,0.30759375700111774,0.3573850665457519
0.767758130081591,0.9775746378197457,0.5131182648469738,0.6553435887876358,0.30731013771871946,0.3581831046773095
0.7522927579301426,0.9785125068587713,0.5044051940216268,0.6526319239424021,0.30672726264478994,0.3595799441243134
0.7375591706914191,0.9794014076156036,0.49679817091343353,0.6499828836467125,0.30597060411091803,0.36127756018844487
