x-axis (g),y-axis (g),z-axis (g),x-axis (deg/s),y-axis (deg/s),z-axis (deg/s)
0.592681199888489,0.4168545105876032,0.14803670321506915,0.08323566054349775,0.41502213099859386,0.6194799333585107
0.6029852892977613,0.43791429545756383,0.16671858995128908,0.09203285811187083,0.41493538802247576,0.613238010588645
0.6130815815358507,0.45888909362005365,0.18559924501186761,0.10086651466249676,0.41465649025869655,0.6070425004503361
0.6227919236469264,0.479842126000577,0.20509776124258644,0.10997316759479468,0.413972626425846,0.6009004577664556
0.6319608436675571,0.500827256058089,0.22559048722744798,0.11957488525642351,0.41269825233221513,0.594817647791773
0.6404637706216324,0.5218850586759015,0.24738253619558204,0.12987371836215586,0.4106876875996563,0.5887991370149713
0.6482125204884597,0.5430404021129195,0.2706836708659378,0.14104771976632915,0.40784474834026446,0.5828500346314119
0.655157666863961,0.5643013959078477,0.29558984146357203,0.15324815190202248,0.4041287843968591,0.5769763917963875
0.6612877631921489,0.5856594745071512,0.3220713056052046,0.16659746861058797,0.39955678345229745,0.5711862222333572
0.6666257096381782,0.6070903439523919,0.3499678855396502,0.18118769424269382,0.39420151273529763,0.5654905671005359
0.6712228232037729,0.6285555142493827,0.37899153806858704,0.19707891471297648,0.38818596553488616,0.5599044965232007
0.6751513488995808,0.650004166294621,0.40873604029899774,0.21429772394161667,0.38167464055916467,0.5544479247452702
0.678496231349987,0.6713751502772716,0.4386932429388107,0.23283561330119945,0.37486238846092995,0.5491461175600778
0.6813469521970229,0.6925989721732846,0.46827502349057853,0.25264742978260396,0.36796169878786333,0.5440297890558935
0.6837901421992761,0.7135996865592998,0.4968397950456935,0.2736501415894903,0.36118936596163914,0.5391347170989
0.6859035188443093,0.7342966692299887,0.5237222026876677,0.29572222324897807,0.35475346486530845,0.5345008491677036
0.6877515056010802,0.754606285937267,0.5482644786144142,0.31870399734661986,0.348841491229425,0.5301709170781818
0.6893826832806925,0.7744435004606124,0.5698478379405324,0.34239924423453816,0.34361038998275106,0.5261886255320246
0.6908290306617253,0.793723475168629,0.5879222870037774,0.3665783182332417,0.33917902018905666,0.5225965204238626
0.6921067492854664,0.8123632114679371,0.6020332894252474,0.39098289797606434,0.33562340418221265,0.5194336744619094
0.6932183488524564,0.8302832589995708,0.6118438929344882,0.41533236266107804,0.33297489759904975,0.5167333471107132
0.6941556011446188,0.8474094951973344,0.6171511581413175,0.4393316404825424,0.33122121196066817,0.5145207817458688
0.6949029517895318,0.863674945441911,0.6178960397694848,0.46268023642174166,0.3303100361568037,0.5128112952162641
0.6954410050625915,0.8790215830740612,0.6141662366274361,0.4850820287785933,0.3301548488421263,0.5116087950260364
0.6957497578885206,0.8934020220499492,0.6061919289189392,0.5062553395861931,0.3306423983485455,0.5109048294235499
0.6958113434555337,0.9067809963360157,0.5943347363403054,0.525942741840223,0.3316412548151863,0.5106782389137694
0.6956121398070089,0.9191365115911438,0.5790706309929204,0.5439200702371838,0.3330108120172073,0.5108954375722954
0.6951441925182419,0.9304605575649505,0.5609678978494128,0.5600041510220253,0.3346101319096731,0.511511312518883
0.6944059830515786,0.9407592841991853,0.5406615260807304,0.5740588552419283,0.33630607861592565,0.5124706931424041
0.6934026382402216,0.9500525699073811,0.5188256143107022,0.5859991989951249,0.3379802738325263,0.5137103106509119
0.6921457173003815,0.9583729452793565,0.49614546486939787,0.595793352171008,0.33953451432418963,0.5151611448892643
0.6906527296539549,0.9657638770865835,0.4732910169228072,0.6034625602331553,0.3408944155173648,0.5167510398058237
0.688946531307362,0.9722774628925002,0.450893125258538,0.609079118262725,0.3420111742306054,0.5184074611999532
0.6870547234578392,0.9779716322758516,0.42952393908736247,0.6127626505382313,0.3428614698207863,0.5200602693713768
0.6850091397644575,0.9829069928707119,0.4096822911189896,0.61467503270832,0.34344563892458907,0.5216443833672475
0.6828454644073942,0.9871434943052996,0.39178459705780844,0.6150143409384066,0.3437843582704458,0.523102220754925
0.6806029776937665,0.9907371071234576,0.3761613214639211,0.6140082211646624,0.3439141479841523,0.5243858053831664
0.6783243849000756,0.993736723889484,0.36305862340789125,0.6119070438592635,0.34388206130194604,0.5254584439945209
0.6760556514943361,0.9961814837668166,0.3526443912815724,0.6089771514905966,0.34373995416789344,0.5262958800922019
0.6738457467224754,0.9980986989494897,0.3450175452045961,0.6054944263268831,0.3435387299175802,0.5268868403322279
0.6717461892559051,0.9995025218594071,0.3402192572703098,0.6017383166768847,0.34332293164442396,0.5272328960713633
0.6698102934190876,1.0003934380383408,0.33824463614681216,0.5979863721962525,0.34312601065052256,0.527347572606685
0.6680920316943286,1.0007586048282417,0.33905345499656,0.5945092650191556,0.3429665373730191,0.5272546537803975
0.6666444572824944,1.0005729854295171,0.3425786705411272,0.5915662227247463,0.3428455459352464,0.526985652909074
0.6655176675920703,0.9998011581589243,0.3487317746131836,0.5894007778591334,0.3427451201739897,0.5265764550526157
0.664756333486872,0.9983996188489626,0.357404414392533,0.5882367491927945,0.34262824316803964,0.5260631822133586
0.6643968676068757,0.9963193476025475,0.3684661802966925,0.5882744098911183,0.3424398495679641,0.5254773924514453
0.6644643555144935,0.9935083861566057,0.3817589500240031,0.5896868606731883,0.34210894585771595,0.5248407944889959
0.66496942287691,0.9899141740676113,0.3970886477581533,0.5926167013670636,0.3415516030448219,0.5241597372752553
0.6659052569294199,0.9854854237012636,0.4142156823702338,0.597173168864274,0.3406745833573372,0.5234198129960297
0.6672450370177375,0.980173375533299,0.4328456240550179,0.6034299689907916,0.339379340368249,0.5225809838241414
0.6689400524419448,0.9739323630771374,0.45262182883066543,0.6114240605754333,0.3375661321604805,0.5215736974444598
0.6709187910972387,0.9667197237853085,0.4731216992349495,0.6211556409582776,0.33513800954135303,0.5202964834514775
0.6730872645672615,0.9584952080772416,0.49385806590954057,0.6325895267573516,0.33200448383685094,0.518615511920786
0.6753307901481413,0.9492201500159458,0.5142867933479226,0.6456580213011482,0.3280847373677161,0.516366538329807
0.67751737512247,0.9388567551730982,0.53382117591091,0.6602652170815247,0.323310308360341,0.5133595501834598
0.6795027433383449,0.9273679187086307,0.5518530361797406,0.6762925113870493,0.3176272532168753,0.5093862692339819
0.6811369120560816,0.914717995958391,0.5677797206930243,0.6936049359226072,0.3109978541462039,0.5042304535946732
0.6822720754396284,0.900874898581099,0.5810354735070932,0.712057741543661,0.3034019902237186,0.4976806969919391
0.6827713916389692,0.8858137765504268,0.591125027865614,0.7315025643832486,0.2948383167308774,0.4895451547622897
0.6825181187797269,0.8695223718792493,0.5976567630910773,0.7517924557781426,0.28532539457744327,0.4796673605018248
0.6814244199883677,0.852007903852016,0.6003724936322656,0.7727851068357616,0.27490287502853583,0.46794206033369584
0.6794390787387498,0.8333050860668205,0.5991709421563219,0.7943437517608386,0.263632775036924,0.4543298126024803
0.6765533520619323,0.8134846089931053,0.5941222298354145,0.8163354922689556,0.251600780134146,0.4388690079210728
0.6728042552096996,0.7926611805698357,0.5854712986728301,0.8386271333804808,0.2389173951642608,0.42168398259559914
0.6682747247291566,0.7710000377326977,0.5736290356285242,0.8610790267577084,0.22571864337915482,0.4029880450132459
0.6630903450727483,0.7487207596788451,0.5591509361672429,0.8835378334835279,0.212165911180887,0.3830805165155225
0.6574126321579324,0.7260972605447555,0.5427043338960023,0.9058294824523128,0.1984444716073426,0.3623372991820943
0.6514292181162968,0.7034530368359738,0.5250264153372711,0.9277538443466462,0.18476021752954033,0.34119500130388597
0.6453416355725962,0.6811511008793589,0.5068763003017824,0.9490826963415607,0.17133421569182328,0.32012924021112543
