x-axis (g),y-axis (g),z-axis (g),x-axis (deg/s),y-axis (deg/s),z-axis (deg/s)
0.49849639543480434,0.2839078753767336,0.12179137125405771,0.14467541318786137,0.5308142074356853,0.8088727768129957
0.5269443222904198,0.30227757079092277,0.12818112997750522,0.14537746522230457,0.5266160509553841,0.8024929176842488
0.555083038171934,0.3205354902233067,0.13419288165898025,0.14619679198654756,0.522615221955479,0.7960205081535897
0.5826291040436489,0.3386884182567351,0.13969415101156757,0.14717045455459649,0.5189949311720039,0.7892819189856515
0.6093134024428852,0.3567391199637164,0.14458342819459724,0.1483169156202025,0.5159164889811327,0.7821232019876939
0.6348902201804935,0.3746872837225235,0.14882167956509332,0.14963526195687973,0.5135071157307932,0.7744182609943111
0.6591457817407903,0.39253151920372137,0.1524620389816884,0.15110691297485673,0.5118498653786543,0.7660747283118111
0.6819057788193588,0.4102719914123608,0.15567442473446091,0.15269985521512303,0.5109764253436127,0.7570373666053531
0.7030414881041007,0.4279132260439807,0.15876206045386404,0.15437518637181347,0.5108633367258242,0.7472890042338763
0.7224741315266411,0.4454666295896591,0.1621673783035867,0.15609550384492057,0.5114319290819942,0.7368491772348025
0.7401772049807879,0.46295232476567455,0.16646552014069024,0.1578344565434553,0.5125520026968801,0.7257707827476929
0.7561765799044937,0.48039999850612003,0.17234457957702853,0.15958661564149673,0.5140490364140787,0.7141351412597954
0.7705482666661593,0.4978485832949833,0.18057278169747948,0.161376726010127,0.5157144654716593,0.7020459181591727
0.7834138205153608,0.5153447287319484,0.19195390217780314,0.16326738481413045,0.5173183736097762,0.6896223719872168
0.7949334714357758,0.5329401545013808,0.20727330078544673,0.16536426052513903,0.5186237866874578,0.676992383227216
0.8052971691069801,0.5506880951439777,0.22723790070577177,0.16781811118071996,0.5194016486408747,0.6642856802823137
0.8147138518379949,0.5686391403130016,0.252414203604329,0.1708230758687281,0.519445510177039,0.6516276252737504
0.8233993695642419,0.5868368337022577,0.28316891962582186,0.17461098351620377,0.5185849692390775,0.6391338573553937
0.8315636087235636,0.6053134152586944,0.3196169565251904,0.17944172907421613,0.5166969706231151,0.6269060200131168
0.8393974715011022,0.6240860740131527,0.3615813191969941,0.18559008687630338,0.5137141979343588,0.6150287245301049
0.8470604424297946,0.6431540257994263,0.4085689121400241,0.19332964030458458,0.509629968884305,0.603567826519996
0.8546695201969052,0.6624966473736495,0.4597653333364699,0.2029147817554887,0.5044992658472336,0.5925700174959756
0.8622902914057952,0.6820727946577955,0.5140505479417594,0.21456195461878172,0.4984357852788104,0.5820636599911273
0.8699308682324226,0.7018213184830424,0.5700359102826932,0.2284314501583465,0.49160515665058674,0.5720607242188178
0.8775392995276796,0.721662677672918,0.6261214616463741,0.24461112220766423,0.4842147462492275,0.5625596188060219
0.8850048958959685,0.7415014478698868,0.6805708836439104,0.26310333301056776,0.47650070461455823,0.553548650779178
0.8921636898670713,0.7612294453704317,0.7316000540542161,0.2838162930093375,0.4687131198781711,0.5450098045939561
0.8988079939435797,0.7807291365510096,0.7774739526596443,0.30656071217431025,0.46110028601112585,0.5369225009624609
0.9046997381382489,0.7998769905441815,0.8166058042087561,0.3310523543766865,0.4538931716834288,0.529266987927336
0.9095869841975972,0.8185464575094069,0.8476519069636979,0.3569206999660463,0.4472911737004343,0.5220270327721132
0.9132227475855262,0.8366103152153119,0.8695956299715479,0.38372350132259775,0.44145015643377,0.5151916262551127
0.9153850321830249,0.8539422170407043,0.88181458512668,0.4109665916580685,0.4364736194708808,0.5087554805637984
0.915896816526499,0.8704173858768433,0.8841259666980139,0.43812791022628883,0.4324076104957589,0.502718197002367
0.914644640702556,0.8859125191115959,0.8768064380365591,0.46468436796907503,0.42923972555804074,0.49708209364357486
0.9115944411112828,0.9003050866503488,0.8605846350004801,0.4901399237110026,0.42690223521212434,0.4918488091767989
0.9068033713740101,0.9134723032182632,0.8366062236269047,0.5140530939692577,0.42527906604081583,0.4870149268644516
0.9004265300654328,0.9252901255084849,0.8063733541921061,0.5360620934452304,0.4242160770433522,0.482566980254181
0.8927177812411543,0.9356326540585282,0.7716621482421184,0.5559059037600791,0.4235338221210388,0.4784762979780301
0.8840241871891019,0.9443723026981337,0.7344233997378166,0.573439791113495,0.42304180301048533,0.47469420722841865
0.8747739545365888,0.9513810332821561,0.6966728453677107,0.5886441262499923,0.4225531062082005,0.47114813496656754
0.8654582011470101,0.9565328436276745,0.6603780707880474,0.601625781106317,0.42189829143127894,0.46773911642170246
0.8566072564935064,0.9597075507571246,0.6273493145360354,0.6126118577444924,0.4209374601210101,0.464341139981788
0.848762586566494,0.9607957430904617,0.5991410967677012,0.6219360139005238,0.4195695759440132,0.4608026289698551
0.8424457615750152,0.9597046012476986,0.576970765621229,0.630018150604276,0.417738324520855,0.45695019186486097
0.8381261395354448,0.9563641269976523,0.5616587897532954,0.6373386858929281,0.41543407074546806,0.45259457580204043
0.8361891043991626,0.950733193414108,0.5535940352283087,0.6444090222437432,0.4126917789699032,0.4475385501396813
0.8369067618969384,0.9428047546252638,0.5527254771962505,0.6517400963225605,0.4095850812580591,0.44158624663762563
0.8404129536428399,0.9326095450764484,0.5585799542876904,0.6598110568632168,0.4062169879841091,0.43455331051320983
0.84668429987036,0.9202176647282458,0.5703038206959324,0.6690401367486184,0.40270800988843986,0.4262770916099473
0.8555287286764135,0.9057375896654399,0.5867248213061182,0.6797596642104491,0.3991826800048616,0.41662604356554955
0.8665826052043999,0.8893123606632586,0.6064293210858658,0.6921969001739386,0.3957556098873594,0.4055075128799742
0.8793171527715099,0.8711129704919739,0.6278492425381123,0.7064620078082493,0.3925182743897269,0.39287319447104746
0.8930543783901879,0.8513292715929335,0.6493527483747705,0.7225439783790784,0.38952768587838454,0.37872170343912714
0.9069921994221429,0.8301590304781807,0.6693328544646252,0.7403147840528825,0.3867979917998705,0.3630979540252399
0.9202379405330253,0.807796031127827,0.6862887345516476,0.7595414389736437,0.38429581555319814,0.3460893278930179
0.9318488565037241,0.7844183431615589,0.6988954115182534,0.7799050647088549,0.3819398730651953,0.32781892966561577
0.9408778633288523,0.760177990465222,0.70605871982584,0.8010255173629501,0.3796050560418944,0.30843653762346435
0.9464222538162875,0.7351932570955962,0.7069537511059044,0.8224896835564713,0.37713080248195635,0.28810812832813903
0.9476728600575712,0.7095447339166164,0.7010463331505683,0.8438812305886739,0.37433320426150507,0.2670050526131619
0.9439609272560641,0.6832759380841764,0.6880983198439211,0.864809436236539,0.3710199607176253,0.2452940374390664
0.9347999021677554,0.6563989390439062,0.6681584803142788,0.8849347507235462,0.36700700590647595,0.22312916128696636
0.9199194314513692,0.6289049251141567,0.6415414908373891,0.9039889703298805,0.3621354423495776,0.20064678834112545
0.8992891217554037,0.6007790844949279,0.6087979083751669,0.9217883268944058,0.3562873269574206,0.17796415035656465
0.8731300386835721,0.5720186065190918,0.5706780349014721,0.9382384007704367,0.3493988891388074,0.15518185186869135
0.8419125115978455,0.542652094572693,0.5280923017688465,0.9533305086285507,0.34146992110259866,0.13239007747195616
0.8063395509968294,0.5127582861408859,0.4820702851631215,0.9671300450901527,0.3325683595913575,0.10967774785303396
0.767316048570697,0.4824817596290745,0.43371980870369314,0.9797580947979604,0.32282945922932016,0.08714336551476345
0.7259048775695592,0.452043323541231,0.3841869176539,0.991368392498763,0.31244941227548695,0.06490588134920423
0.6832719898569792,0.42174306540890366,0.3346169456443721,1.0021222999483137,0.3016737608893274,0.04311367074322116
0.6406235499561345,0.39195459555467044,0.2861165518229428,1.0121647997708372,0.2907814328296374,0.021949697050515117
