x-axis (g),y-axis (g),z-axis (g),x-axis (deg/s),y-axis (deg/s),z-axis (deg/s)
0.658481933498338,0.4769636396435351,0.3994052718104887,0.2205100841709229,0.5062079496320628,0.8499510816321026
0.6666470421982947,0.49785223040101095,0.4127175673840937,0.2248320331425545,0.49055122761851083,0.8302448064216564
0.6747320291225062,0.5186169083002468,0.4264018488930354,0.22918170965659532,0.47459408988862,0.8107363687459681
0.6827630267382482,0.5392563024744501,0.44109558304392726,0.23375232520729558,0.457998839737836,0.7915430974574056
0.6907744630735654,0.5597659375488924,0.4573785727848079,0.23872887707587312,0.44048783534819663,0.7727745154695561
0.698809003736436,0.5801362861452967,0.47573618604952644,0.244285932502584,0.4218748370491539,0.7545281255285851
0.70691591987306,0.6003515968610361,0.4965277678168334,0.250586138406896,0.4020889820304638,0.7368854505021476
0.7151477236517193,0.6203893622640593,0.5199618151282732,0.2577789691103512,0.3811895183543282,0.7199087061768336
0.7235552065559466,0.6402202684972482,0.5460791737361348,0.2659992815099012,0.3593702835747968,0.7036384312271844
0.7321812915226854,0.659808470528404,0.5747451466402907,0.27536536460959077,0.336953801510614,0.6880923127368014
0.7410543267584343,0.6791120581911848,0.6056509930454598,0.2859763280111655,0.3143757080560593,0.6732653369899136
0.7501815782112424,0.6980836104632903,0.6383248484620847,0.29790884879970014,0.29216093371169255,0.6591312765279328
0.7595437050219952,0.7166707718154041,0.6721516252479685,0.3112134650045505,0.2708936173593104,0.6456454082404889
0.7690909282229123,0.7348168190152057,0.7064009765901278,0.3259107455521181,0.2511830746779575,0.6327482549443864
0.778741440706175,0.752461215220036,0.7402619505287972,0.34198776477093307,0.23362828779213904,0.6203700636256406
0.7883823791385846,0.7695401680847803,0.7728825533509173,0.3593953532367693,0.21878333022711208,0.6084356833573886
0.7978734153651461,0.7859872191892173,0.8034121145192717,0.3780465817482561,0.20712591712855133,0.5968694875253595
0.8070527575695825,0.8017338939842406,0.8310441276041041,0.39781686377940956,0.1990309093034566,0.5855999976861951
0.8157451102672523,0.816710436285195,0.8550571575084063,0.418545942146432,0.1947501415243555,0.574563906470856
0.8237709526488494,0.8308466412689962,0.8748514690499591,0.44004187100049846,0.19439943379388241,0.5637092584438081
0.8309563752693768,0.8440727882795664,0.889979249898143,0.46208693107503995,0.19795312114295274,0.5529976233080973
0.837142675296312,0.8563206616710533,0.9001666635599409,0.4844452423385951,0.2052459415891828,0.542405177347883
0.8421949510216425,0.867524636198831,0.9053264545241836,0.5068716814285945,0.21598168566618053,0.5319226889193946
0.8460090489766063,0.8776227943871464,0.9055604055181035,0.5291215869420641,0.2297476592964552,0.5215544756425055
0.8485163864086208,0.8865580376160395,0.901151575243881,0.5509606557182609,0.24603376080443867,0.5113164598725903
0.8496863776219762,0.8942791506445015,0.8925468781462274,0.5721744048987794,0.26425482947966766,0.5012334921790813
0.8495264117169457,0.9007417807737594,0.8803311591622812,0.5925765998217178,0.2837748853507233,0.4913361390757769
0.8480795386519753,0.9059092973910141,0.8651944229707786,0.6120161235036554,0.30393193778692873,0.4816571421210682
0.8454201999429553,0.9097535045444145,0.8478942633007284,0.6303818816652329,0.3240621777502343,0.4722277531592766
0.8416484739560919,0.912255187691753,0.8292157781221559,0.6476054862575106,0.3435225638731817,0.4630741382540154
0.8368833839027064,0.9134044850085316,0.8099313381648267,0.6636616260340996,0.3617110424479866,0.4542140244571091
0.8312558361949977,0.9132010828305135,0.7907624994468098,0.6785661996395403,0.37808388203454485,0.4456537424223656
0.824901721143638,0.9116542432040278,0.7723461281253293,0.6923724401755572,0.3921698327789419,0.43738579676708667
0.8179556260596635,0.9087826784807155,0.7552064615631412,0.7051653873721329,0.40358102047090244,0.4293870767162301
0.8105454958335151,0.9046142928879899,0.7397343946598736,0.7170551544804495,0.412020642811971,0.4216178024383175
0.8027884435479874,0.8991858136175431,0.7261747915977795,0.7281694858296028,0.41728764329609996,0.4140212869202156
0.7947877796176755,0.8925423339181845,0.7146221177385955,0.738646105926028,0.4192785957797845,0.40652457757066873
0.7866312069006471,0.8847367878223189,0.7050241997864923,0.7486253245462732,0.4179870454113895,0.39904002369581454
0.7783900328054935,0.8758293705220767,0.6971934846677814,0.758243290815084,0.4135005292452161,0.3914677930678214
0.770119185181958,0.8658869103020856,0.6908248018068093,0.7676261921348687,0.4059954562947801,0.3836993308152121
0.7618577897265455,0.8549821878495292,0.6855183541942492,0.7768855823828916,0.39572997750563343,0.3756217153595529
0.7536300712278551,0.843193187511818,0.6808064770230711,0.7861149101401224,0.38303493656929893,0.3671228188084763
0.7454463737703337,0.8306022537875377,0.6761826073268216,0.7953872135200356,0.36830297606298473,0.3580971241959572
0.7373041476785949,0.817295116455769,0.671130896659973,0.8047538634656827,0.35197588977443295,0.34845199185928144
0.7291888136400576,0.8033597409713689,0.6651549601759761,0.8142441796245017,0.3345303659055012,0.33811410613303233
0.7210744771219116,0.7888849589390394,0.6578043765159898,0.8238657162448817,0.31646235595433364,0.3270357767169417
0.712924520221858,0.7739588384906816,0.6486977209690592,0.8336050204600536,0.29827042327794906,0.31520072265752486
0.7046921372113389,0.7586667678820357,0.6375411183346353,0.8434286986685853,0.2804385610083839,0.3026289373033137
0.6963209011619718,0.7430892487757967,0.624141533219099,0.8532846820288699,0.2634191042730224,0.28938022598330543
0.6877454525125523,0.7272994289002632,0.608414268068129,0.8631036503060164,0.2476164772491316,0.27555602970528514
0.6788923896610672,0.7113604464078549,0.5903844089115358,0.8728006437699184,0.233372591931576,0.2612992014760871
0.6696814223733674,0.6953227083145848,0.5701822421440679,0.8822769544063357,0.22095473525566986,0.2467914883434806
0.660026827786049,0.6792212793655055,0.5480329585275092,0.8914224300118483,0.21054673154602987,0.23224859074405654
0.6498392324738599,0.6630736104469285,0.5242412566225482,0.9001183394352585,0.20224404179714983,0.2179128170538284
0.6390277370484697,0.6468778806974429,0.4991717472862492,0.9082409290015112,0.19605326153897584,0.20404351814812743
0.6275024035974023,0.6306122570805248,0.47322632984371943,0.9156657475868399,0.19189621495649742,0.190905664102416
0.6151771386998631,0.6142353811659719,0.44681994109471534,0.922272733831192,0.189618532596323,0.17875710015211158
0.6019730196359965,0.5976883673297401,0.42035624916698766,0.9279519509029134,0.1890022683699557,0.16783517701128833
0.5878221194361212,0.5808985329956629,0.3942049523976612,0.9326097333944645,0.1897817884371733,0.1583435759864886
0.572671876607937,0.5637849759601944,0.36868232660800876,0.9361748917757831,0.19166188181436206,0.15044022659477632
0.5564900171709205,0.5462659661419117,0.3440365237062813,0.9386045186341224,0.19433683107692779,0.14422722982219144
0.5392699623663507,0.5282679341272823,0.32043884895132635,0.939888874109902,0.19750906791029896,0.13974364314942245
0.5210365428438337,0.5097356273131071,0.2979818324480843,0.9400548101591483,0.20090604171027446,0.13696184822200394
0.5018516944675224,0.4906427831520621,0.27668437530947915,0.9391672354234119,0.20429405902737577,0.1357880090307525
0.48181964607415767,0.4710024608061663,0.2565036214153203,0.9373282297697401,0.20748810431138925,0.13606684567989177
0.46109094827723146,0.4508760050743962,0.23735252822233993,0.9346735878959708,0.21035701174173244,0.13759061250745142
0.4398645649099834,0.43037952031104265,0.21912144772866493,0.9313667943810373,0.21282379419029834,0.140111804084921
0.41838718965000027,0.40968673761662866,0.20170145819242707,0.9275906892482424,0.21486140683137417,0.14335875059955472
0.39694899466365474,0.3890272923271218,0.18500679294120248,0.9235373468167368,0.21648467880380465,0.1470529431010296
0.37587519513404205,0.368679708628852,0.16899357749395666,0.9193969289772805,0.21773953148561861,0.1509266893948588
