x-axis (g),y-axis (g),z-axis (g),x-axis (deg/s),y-axis (deg/s),z-axis (deg/s)
0.6090779571017928,0.9112170496832703,0.34055286885947955,0.7135387246972078,0.49697097871838297,0.33958157390127397
0.5973107551125147,0.9001568632375597,0.33890520225400994,0.718765863278221,0.4927869018874958,0.33131553924305146
0.5855336075633251,0.8891243928777277,0.33716552415037915,0.7241700849676777,0.4885800552990156,0.32312112108504243
0.5736975301426865,0.8780729001165364,0.3351429953531784,0.7299055668056128,0.4844314544939188,0.31504321452033396
0.5617677612973944,0.866964752803906,0.3326577616678597,0.7360908761172452,0.4804292996388647,0.30712506871382844
0.5497274691738381,0.8557714992906044,0.3295497320019059,0.7427947384943538,0.47666660039930775,0.29940706945199097
0.5375794321303651,0.8444724028679454,0.3256868579230171,0.7500266419530983,0.47323762065356745,0.2919254462115498
0.5253456247672701,0.8330517554008504,0.32097262558866996,0.7577331128512315,0.4702331097672062,0.2847110121705356
0.5130648236019948,0.8214954041352504,0.3153524159977275,0.7657998870882046,0.46773443120033004,0.277788043967902
0.500788516080375,0.8097869911955553,0.3088183586822665,0.7740595906656077,0.4658068536861821,0.27117339851306865
0.4885755399124264,0.7979044165887833,0.3014123129363506,0.7823040050824023,0.4644924197028076,0.26487594855224267
0.476485985000118,0.7858169940519455,0.2932266669564017,0.7902995800063574,0.4638029353875641,0.2588963985702486
0.46457494865060023,0.7734836818121129,0.2844027476272472,0.7978046046271452,0.46371372149296936,0.25322751925020304
0.4528867413026792,0.7608526485919733,0.2751267731967526,0.8045863760098031,0.4641588142743564,0.24785481327677228
0.4414500940146804,0.7478622930554739,0.2656234431138334,0.8104368033190544,0.4650282984697669,0.24275759886509385
0.4302748245239645,0.7344436874568979,0.256147426106747,0.8151851386438874,0.46616838493165574,0.23791047120429426
0.4193502843461869,0.7205242780313043,0.24697316094806465,0.8187068917916922,0.4673847100882914,0.23328507730869652
0.408645747526587,0.706032558104835,0.23838350805888495,0.8209284220272616,0.4684491353623503,0.22885211794595228
0.3981127273898322,0.6909033443480211,0.23065787179193886,0.8218271546494041,0.4691100701291547,0.22458347273979062
0.38768903728007065,0.6750832376032706,0.22406044564694735,0.8214277964790531,0.4691060466708303,0.22045433248723506
0.37730426066814277,0.6585358388730566,0.2188292141551148,0.8197952802570381,0.46818196148887126,0.21644521718746454
0.3668861787562083,0.6412463162117972,0.21516627946411224,0.8170254225507801,0.4661070915457994,0.2125437598643645
0.3563676297796673,0.6232249741681244,0.21322997610664887,0.813234415002672,0.4626937272772826,0.20874614510784525
0.34569324882799524,0.6045095566064997,0.21312910575677327,0.8085482805831745,0.45781506763718666,0.20505810696986915
0.3348255602683615,0.585166107546571,0.21491947853013163,0.8030933242748854,0.45142092363693104,0.20149541253971254
0.32374996192311356,0.5652883142934119,0.218602802364019,0.7969884119084782,0.4435497961396129,0.19808378387713407
0.3124782421006236,0.5449953545453297,0.2241278297108907,0.7903396503074157,0.4343360408355548,0.19485824038929372
0.30105039569902464,0.5244283577503306,0.23139356107382286,0.7832377491738729,0.424011105504372,0.19186187443156702
0.28953464095154796,0.5037456659735786,0.2402542241357604,0.7757580529912297,0.41289820590027965,0.18914410312620478
0.2780256713443017,0.4831171381331148,0.25052569770692923,0.7679629687177002,0.40140026904051646,0.18675846749375666
0.26664129686287785,0.4627177826762472,0.26199302980587086,0.759906304805597,0.3899814793526643,0.1847600745905185
0.2555177266868064,0.4427210281017033,0.27441870389071893,0.7516388934817977,0.3791432717661228,0.18320279836216466
0.24480381653904332,0.42329194970275746,0.28755132919356,0.7432147968906103,0.3693960831802246,0.18213636961812735
0.2346546460484678,0.4045807665611177,0.3011344618504797,0.7346973960919548,0.3612285598548887,0.1816034944882188
0.22522480543870674,0.3867169072773276,0.3149152949966235,0.7261647208232386,0.3550761900998772,0.18163714381131443
0.21666175956670464,0.36980391800863266,0.32865298182967206,0.717713483587463,0.35129146568365316,0.18225815321633254
0.20909962524516418,0.3539154534173583,0.3421263721632823,0.7094614179662536,0.35011765921155286,0.18347326543120707
0.20265365012767522,0.3390925508543137,0.3551409497820962,0.7015476719564235,0.35166813741041203,0.1852737329254542
0.19741562361703438,0.32534234076698393,0.3675347578183309,0.6941311582568763,0.3559128218918526,0.18763458071976666
0.1934503873658635,0.31263829191454723,0.37918309793820903,0.6873869035402969,0.3626729794560117,0.19051460644725737
0.19079354941283502,0.30092202851150823,0.3900017935538425,0.6815005603541976,0.37162500138796556,0.19385716788496618
0.1894504454168387,0.29010668831768105,0.39994882507520596,0.6766613447788566,0.3823132496949749,0.19759177756204768
0.18939633543282658,0.2800817170803241,0.4090241827777875,0.6730537400866581,0.39417144603447063,0.20163649011729426
0.1905777768541117,0.2707189177497041,0.41726784415384255,0.6708483636863584,0.40655149611837926,0.20590103136498786
0.19291507423435736,0.26187949582268877,0.42475586822705363,0.6701924352927314,0.4187581179793824,0.21029057927287473
0.1963056745908105,0.25342176946642453,0.4315947059669954,0.6712003124295076,0.43008721305337744,0.21471006728232944
0.20062835173044888,0.24520915015999645,0.43791394656320726,0.673944578000355,0.4398656157919963,0.21906884100140273
0.2057480039745668,0.23711795250739298,0.44385784361167874,0.6784481748353287,0.4474897044328778,0.2232854621072168
0.2115208750894918,0.2290445667508765,0.44957608073555266,0.6846780824976578,0.45246036756119173,0.2272924206068534
0.217799997119465,0.22091152991505783,0.4552143294493741,0.6925410183368099,0.4544120027876694,0.2310404911770157
0.2244406454479924,0.21267206571334224,0.46090521045367394,0.7018816117725726,0.45313356875121485,0.23450245423925795
0.23130559071891202,0.2043127316148873,0.4667602824183812,0.7124834408218624,0.4485802020629939,0.23767590100947378
0.23826992993262128,0.1958539134264079,0.4728636425955542,0.7240732257600021,0.4408745185352801,0.24058485716366362
0.24522528157323864,0.18734803991709006,0.47926762885535473,0.7363283410976382,0.43029740565855124,0.2432799946918879
0.2520831391279902,0.1788755456333071,0.48599096595190894,0.7488876317754022,0.41726883614122134,0.24583725776572052
0.2587771962940599,0.1705387791460773,0.493019508747077,0.761365305702187,0.4023199410379371,0.24835480643861346
0.26526448795389473,0.16245422384452357,0.5003095160665573,0.773367431774656,0.38605822446009036,0.2509482803163263
0.27152523555007974,0.15474355440268994,0.5077931599318314,0.7845103163044379,0.3691283305254721,0.253744499351981
0.27756134471162514,0.14752417878355542,0.5153857585798404,0.7944397836485491,0.3521711424846851,0.2568738445871477
0.2833935763144695,0.14089999828615374,0.5229940418175913,0.8028501760126966,0.33578416770552605,0.2604616895054587
0.2890574972103458,0.13495314403404324,0.5305246366519113,0.8095017426178951,0.32048611594203413,0.26461937208723557
0.29459840920447916,0.12973740854203264,0.5378919187429093,0.8142350386504514,0.30668830219881865,0.26943529653745485
0.3000655480458036,0.12527398190252267,0.5450244234069928,0.8169810239058029,0.29467500657654944,0.2749668193271811
0.30550592997530707,0.12154992643637576,0.551869151942503,0.8177657551501561,0.28459422721136785,0.2812335946533296
0.31095829226641325,0.11851959124600714,0.5583933374551359,0.8167089074961491,0.2764594130697881,0.28821301986540243
0.31644761623988543,0.11610889617736267,0.5645835300672349,0.8140158250982371,0.270161823061552,0.2958383257572888
0.3219807270900621,0.11422212713084459,0.5704421943991824,0.8099633591050086,0.2654922041198181,0.30399969904654167
0.3275434269803657,0.11275061062064354,0.5759823436351927,0.8048803524705122,0.2621696019279847,0.31254861048144855
0.333099531825181,0.11158240709242087,0.5812210201880633,0.7991242135178057,0.2598744067567852,0.32130526457117936
0.3385920478679939,0.1106120116752586,0.5861726285733018,0.7930555102684428,0.25828228243903484,0.3300688056884948
